C1CH1,C1CH2,C2CH1,C2CH2,timestamp
-2.3448906,-1.1138464,-1.0795887,0.015001299,2647.4545964965732
-0.36933485,-1.0839881,-0.0043994193,-1.2555654,2647.4561157927988
1.4678193,-0.0043272977,-0.004255176,0.9323884,2647.457635089024
-2.1786501,1.4950092,-2.3448906,-1.0901184,2647.4591543852493
-1.112981,-0.004255176,0.010385514,-0.12354435,2647.4606736814744
-1.086945,-2.3448906,-1.4032705,-1.074468,2647.4621929777
-0.0043272977,-0.3508717,1.4678193,-0.0043994193,2647.4637122739255
0.3134406,1.4678193,-1.091056,-0.004255176,2647.4652315701505
-0.004255176,-2.1786501,-0.105081216,-2.3448906,2647.466750866376
-2.3448906,-1.1149282,-1.079228,0.010385514,2647.4682701626016
-0.20316663,-1.0831226,-0.0043994193,-2.0679436,2647.4697894588267
1.4678193,-0.0043272977,-0.004255176,1.4308931,2647.471308755052
-2.030945,0.3135127,-2.3448906,-1.0898299,2647.4728280512772
-1.1113222,-0.004255176,0.00576973,-0.08661807,2647.4743473475028
-1.0863681,-2.3448906,-1.1632497,-1.0764153,2647.4758666437283
-0.004255176,0.1660961,1.0616304,-0.0043994193,2647.4773859399534
-0.86812806,1.4678193,-1.0895414,-0.004255176,2647.478905236179
-0.004255176,-1.2739564,-0.06815494,-2.3448906,2647.4804245324044
-2.3448906,-1.1145676,-1.0769202,0.00576973,2647.4819438286295
-1.200176,-1.0868008,-0.0043994193,-1.1817129,2647.483463124855
1.4678193,-0.0043272977,-0.004255176,0.54466254,2647.48498242108
-1.753998,-0.86805594,-2.3448906,-1.0924263,2647.4865017173056
-1.1151446,-0.004255176,0.001153946,-0.049691804,2647.488021013531
-1.0849978,-2.3448906,-1.5325125,-1.0770644,2647.489540309756
-0.0043272977,-0.20316663,0.9693147,-0.0043994193,2647.4910596059817
-2.0496247,1.4678193,-1.0947342,-0.004255176,2647.492578902207
-0.004255176,-2.0863345,-0.049691804,-2.3448906,2647.4940981984323
-2.3448906,-1.1170198,-1.0782183,0.001153946,2647.495617494658
-0.44318742,-1.0868729,-0.0043994193,-1.1632497,2647.497136790883
1.4678193,-0.0043272977,-0.004255176,1.0616304,2647.4986560871084
-2.1047976,-2.0495524,-2.3448906,-1.0935802,2647.500175383334
-1.1155773,-0.004255176,0.015001299,-0.031228665,2647.501694679559
-1.086945,-2.3448906,-1.7540702,-1.0806705,2647.5032139757845
-0.0043272977,-1.0524709,1.2462617,-0.0043994193,2647.5047332720096
1.4954419,1.4678193,-1.0913445,-0.004255176,2647.506252568235
-0.004255176,-1.8278506,-0.012765529,-2.3448906,2647.5077718644607
-2.3448906,-1.1132694,-1.0757662,0.015001299,2647.5092911606857
-0.62781876,-1.0840602,-0.0043994193,-1.7909964,2647.5108104569113
1.4862825,-0.0043272977,-0.004255176,1.2462617,2647.512329753137
-1.1631776,1.4770509,-2.3448906,-1.0925705,2647.513849049362
-1.1157937,-0.004255176,0.010385514,0.00576973,2647.5153683455874
-1.0841323,-2.3448906,-1.2371023,-1.0772808,2647.5168876418124
-0.0043272977,-0.36933485,0.876999,-0.0043994193,2647.518406938038
0.2954823,1.4862825,-1.0906233,-0.004255176,2647.5199262342635
-0.004255176,2.307892,0.024232868,-2.3448906,2647.5214455304886
-2.3448906,-1.1160101,-1.0793002,0.010385514,2647.522964826714
-0.49857682,-1.0878826,-0.0043994193,-1.735607,2647.524484122939
1.4862825,-0.0043272977,-0.004255176,0.7292939,2647.5260034191647
2.2155764,0.29555443,-2.3448906,-1.0943736,2647.52752271539
-1.1132694,-0.004255176,0.00576973,0.042696003,2647.5290420116153
-1.0826178,-2.3448906,-1.2740285,-1.0785068,2647.530561307841
-0.0043272977,-0.44318742,-0.12001039,-0.0043994193,2647.5320806040663
-0.88608634,1.4862825,-1.0909117,-0.004255176,2647.5335999002914
-0.004255176,2.307892,0.06115914,-2.3448906,2647.535119196517
-2.3448906,-1.114784,-1.0776414,0.00576973,2647.536638492742
-0.49857682,-1.0855026,-0.0043994193,-1.7171439,2647.5381577889675
1.4862825,-0.0043272977,-0.004255176,0.89546216,2647.539677085193
-1.8647768,-0.8860142,-2.3448906,-1.0912002,2647.541196381418
-1.112981,-0.004255176,0.001153946,0.079622276,2647.5427156776436
-1.0846372,-2.3448906,2.160115,-1.0788674,2647.544234973869
-0.0043272977,-1.2371023,0.54466254,-0.0043994193,2647.545754270094
-2.0675828,1.4862825,-1.091633,-0.004255176,2647.5472735663197
-0.004255176,-1.5324404,0.079622276,-2.3448906,2647.548792862545
-2.3448906,-1.1135579,-1.080382,0.001153946,2647.5503121587703
-0.31394544,-1.0861517,-0.0043994193,-2.271038,2647.551831454996
1.4862825,-0.0043272977,-0.004255176,0.56312567,2647.553350751221
-1.1447145,-2.0675108,-2.3448906,-1.0903348,2647.5548700474465
-1.1138464,-0.004255176,0.015001299,0.09808542,2647.5563893436715
-1.0866566,-2.3448906,-0.923229,-1.079228,2647.557908639897
-0.0043272977,-0.18470348,1.2462617,-0.0043994193,2647.5594279361226
1.4774836,1.4862825,-1.0901905,-0.004255176,2647.5609472323476
-0.004255176,-1.7170718,0.11654855,-2.3448906,2647.562466528573
-2.3448906,-1.11363,-1.0766317,0.015001299,2647.5639858247987
-0.66474503,-1.0848535,-0.0043994193,-1.2924917,2647.5655051210238
1.4862825,-0.0043272977,-0.004255176,0.6185151,2647.5670244172493
-1.7170718,1.4775558,-2.3448906,-1.0955275,2647.5685437134744
-1.1140628,-0.004255176,0.010385514,0.13501169,2647.5700630097
-1.0844208,-2.3448906,-1.3109548,-1.0765595,2647.5715823059254
-0.0043272977,-0.16624035,1.6155245,-0.0043994193,2647.5731016021505
0.29598716,1.4862825,-1.0883875,-0.004255176,2647.574620898376
-0.004255176,-1.1631776,0.15347482,-2.3448906,2647.5761401946015
-2.3448906,-1.1118991,-1.0787232,0.010385514,2647.5776594908266
-0.84937644,-1.0841323,-0.0043994193,-1.4401968,2647.579178787052
1.4862825,-0.004255176,-0.004255176,1.2277986,2647.580698083277
-1.4585878,0.29605928,-2.3448906,-1.0902627,2647.5822173795027
-1.1121155,-0.004255176,0.00576973,0.17193796,2647.5837366757282
-1.0839881,-2.3448906,-1.9387015,-1.0788674,2647.5852559719533
-0.0043272977,-1.200176,1.153946,-0.0043994193,2647.586775268179
-0.8855815,1.4862825,-1.0929312,-0.004255176,2647.588294564404
-0.004255176,-1.0339357,0.1904011,-2.3448906,2647.5898138606294
-2.3448906,-1.1139907,-1.076848,0.00576973,2647.591333156855
-0.2954823,-1.0860796,-0.0043994193,-1.3478811,2647.59285245308
1.4862825,-0.0043272977,-0.004255176,1.6155245,2647.5943717493055
-1.6247561,-0.8855094,-2.3448906,-1.0905511,2647.595891045531
-1.1154331,-0.004255176,0.001153946,0.20886424,2647.597410341756
-1.0882432,-2.3448906,-1.7540702,-1.0757662,2647.5989296379817
-0.0043272977,-0.49857682,1.3939668,-0.0043994193,2647.6004489342067
-2.067078,1.4862825,-1.0924263,-0.004255176,2647.6019682304322
-0.004255176,-1.4585878,0.20886424,-2.3448906,2647.603487526658
-2.3448906,-1.1158658,-1.0787232,0.001153946,2647.605006822883
-0.68320817,-1.0846372,-0.0043994193,-1.4955862,2647.6065261191084
1.4862825,-0.0043272977,-0.004255176,1.7263033,2647.608045415334
-1.9017031,-2.0670059,-2.3448906,-1.0936524,2647.609564711559
-1.1129088,-0.004255176,0.015001299,0.22732738,2647.6110840077845
-1.0849978,-2.3448906,-0.9416921,-1.0770644,2647.6126033040096
-0.0043272977,-0.9786184,1.0431672,-0.0043994193,2647.614122600235
1.4779885,1.4862825,-1.0883154,-0.004255176,2647.6156418964606
-0.004255176,-0.9970094,0.24579051,-2.3448906,2647.6171611926857
-2.3448906,-1.1162264,-1.0769202,0.015001299,2647.618680488911
0.4061169,-1.0889645,-0.0043994193,-1.6248282,2647.6201997851363
1.4862825,-0.0043272977,-0.004255176,1.6524508,2647.621719081362
-1.3108827,1.4780606,-2.3448906,-1.0925705,2647.6232383775873
-1.1139907,-0.004255176,0.010385514,0.26425365,2647.6247576738124
-1.0855747,-2.3448906,-1.4955862,-1.0795165,2647.626276970038
-0.004255176,0.2584118,1.8924716,-0.0043994193,2647.6277962662634
0.296492,1.4862825,-1.0925705,-0.004255176,2647.6293155624885
-0.004255176,-1.606293,0.28271678,-2.3448906,2647.630834858714
-2.3448906,-1.1121155,-1.0758383,0.010385514,2647.632354154939
-0.7385976,-1.0842766,-0.0043994193,-1.477123,2647.6338734511646
1.4862825,-0.0043272977,-0.004255176,0.7292939,2647.63539274739
-1.8278506,0.29656413,-2.3448906,-1.0914166,2647.636912043615
-1.1122597,-0.004255176,0.00576973,0.30117992,2647.6384313398407
-1.0862238,-2.3448906,-1.1447866,-1.077425,2647.6399506360663
-0.004255176,0.09224356,0.5261994,-0.0043994193,2647.6414699322913
-0.88507664,1.4862825,-1.0895414,-0.004255176,2647.642989228517
-0.004255176,1.9940188,0.31964305,-2.3448906,2647.644508524742
-2.3448906,-1.1147119,-1.0772808,0.00576973,2647.6460278209674
-0.4801137,-1.0873778,-0.0043994193,-1.6802176,2647.647547117193
1.4862825,-0.0043272977,-0.004255176,0.9877778,2647.649066413418
-1.5878298,-0.8850045,-2.3448906,-1.0909117,2647.6505857096436
-1.1150725,-0.004255176,0.001153946,0.3381062,2647.6521050058686
-1.0818965,-2.3448906,-2.0864067,-1.076848,2647.653624302094
-0.004255176,0.7199902,1.0616304,-0.0043994193,2647.6551435983197
-2.0665731,1.4862825,-1.0887481,-0.004255176,2647.6566628945448
-0.004255176,-2.1047976,0.3381062,-2.3448906,2647.6581821907703
-2.3448906,-1.112404,-1.0795887,0.001153946,2647.659701486996
-0.7385976,-1.0830505,-0.0043994193,-1.6617545,2647.661220783221
1.4862825,-0.004255176,-0.004255176,1.0616304,2647.6627400794464
-1.2001039,-2.0665011,-2.3448906,-1.0907675,2647.6642593756715
-1.1146398,-0.004255176,0.015001299,0.35656932,2647.665778671897
-1.0834832,-2.3448906,-0.923229,-1.0764153,2647.6672979681225
-0.0043272977,-0.5908925,1.541672,-0.0043994193,2647.6688172643476
1.4784933,1.4862825,-1.0902627,-0.004255176,2647.670336560573
-0.004255176,-1.6247561,0.37503248,-2.3448906,2647.6718558567986
-2.3448906,-1.1131973,-1.0747565,0.015001299,2647.6733751530237
-0.68320817,-1.0862238,-0.0043994193,-1.477123,2647.674894449249
1.4862825,-0.0043272977,-0.004255176,1.1170198,2647.6764137454743
-1.6247561,1.4785655,-2.3448906,-1.0891087,2647.6779330417
-1.1129088,-0.004255176,0.010385514,0.39349562,2647.6794523379253
-1.0842766,-2.3448906,-1.864849,-1.0766317,2647.6809716341504
-0.0043272977,-0.40626115,0.3231049,-0.0043994193,2647.682490930376
0.29699686,1.4862825,-1.0898299,-0.004255176,2647.6840102266015
-0.004255176,-0.8862306,0.41195875,-2.3448906,2647.6855295228265
-2.3448906,-1.1155052,-1.0772086,0.010385514,2647.687048819052
-0.7755239,-1.0865844,-0.0043994193,-1.6432914,2647.688568115277
1.4862825,-0.0043272977,-0.004255176,1.2462617,2647.6900874115026
-1.8463137,0.29706898,-2.3448906,-1.089902,2647.691606707728
-1.116587,-0.004255176,0.00576973,0.4304219,2647.6931260039532
-1.085142,-2.3448906,-1.7540702,-1.077425,2647.6946453001788
-0.0043272977,-0.12931408,1.2093354,-0.0043994193,2647.696164596404
-0.8845718,1.4862825,-1.091056,-0.004255176,2647.6976838926294
-0.004255176,-1.1816407,0.44888502,-2.3448906,2647.699203188855
-2.3448906,-1.1139185,-1.0761989,0.00576973,2647.70072248508
-0.49857682,-1.0849257,-0.0043994193,-1.2740285,2647.7022417813055
1.4862825,-0.0043272977,-0.004255176,0.9139253,2647.703761077531
-1.4031984,-0.88449967,-2.3448906,-1.0926427,2647.705280373756
-1.114207,-0.004255176,0.001153946,0.46734816,2647.7067996699816
-1.0870893,-2.3448906,-1.4401968,-1.0790838,2647.7083189662067
-0.0043272977,-0.036998395,1.0431672,-0.0043994193,2647.709838262432
-2.0660684,1.4862825,-1.0889645,-0.004255176,2647.7113575586577
-0.004255176,-1.7355349,0.46734816,-2.3448906,2647.712876854883
-2.3448906,-1.1150725,-1.0765595,0.001153946,2647.7143961511083
-0.5355031,-1.0861517,-0.0043994193,-1.0340078,2647.715915447334
1.4862825,-0.0043272977,-0.004255176,0.8031465,2647.717434743559
-1.6986086,-2.0659962,-2.3448906,-1.0895414,2647.7189540397844
-1.1144955,-0.004255176,0.015001299,0.4858113,2647.7204733360095
-1.0835553,-2.3448906,-1.6432914,-1.0772808,2647.721992632235
-0.0043272977,-0.9416921,0.71083075,-0.0043994193,2647.7235119284605
1.4789982,1.4862825,-1.0904069,-0.004255176,2647.7250312246856
-0.004255176,-1.5139773,0.5042744,-2.3448906,2647.726550520911
-2.3448906,-1.1137743,-1.077425,0.015001299,2647.728069817136
-0.4801137,-1.0828341,-0.0043994193,-0.923229,2647.7295891133617
1.4862825,-0.0043272977,-0.004255176,1.6339877,2647.7311084095873
-2.2525027,1.4790703,-2.3448906,-1.0904069,2647.7326277058123
-1.1114664,-0.004255176,0.010385514,0.52273756,2647.734147002038
-1.0871614,-2.3448906,-2.2156487,-1.080382,2647.7356662982634
-0.0043272977,-0.9970815,1.283188,-0.0043994193,2647.7371855944884
0.2975017,1.4862825,-1.0895414,-0.004255176,2647.738704890714
-0.004255176,-1.6432192,0.5412007,-2.3448906,2647.740224186939
-2.3448906,-1.1138464,-1.0770644,0.010385514,2647.7417434831646
-0.3508717,-1.0834832,-0.0043994193,-1.3663442,2647.74326277939
1.4862825,-0.0043272977,-0.004255176,1.5047457,2647.744782075615
-1.9940188,0.29757383,-2.3448906,-1.0907675,2647.7463013718407
-1.1160101,-0.004255176,0.00576973,0.55966383,2647.747820668066
-1.086945,-2.3448906,-2.3448906,-1.0764874,2647.7493399642913
-0.0043272977,-1.1632497,-0.12001039,-0.0043994193,2647.750859260517
-0.88406694,1.4862825,-1.0894693,-0.004255176,2647.752378556742
-0.004255176,-1.8278506,0.57812697,-2.3448906,2647.7538978529674
-2.3448906,-1.1168755,-1.0781462,0.00576973,2647.755417149193
-0.68320817,-1.0844929,-0.0043994193,-2.0310173,2647.756936445418
1.4862825,-0.0043272977,-0.004255176,0.89546216,2647.7584557416435
-1.7355349,-0.8839948,-2.3448906,-1.0925705,2647.7599750378686
-1.1140628,-0.004255176,0.001153946,0.5965901,2647.761494334094
-1.085719,-2.3448906,-1.5509757,-1.0805984,2647.7630136303196
-0.0043272977,-1.2186391,0.56312567,-0.0043994193,2647.7645329265447
-2.0655634,1.4862825,-1.0919936,-0.004255176,2647.76605222277
-0.004255176,-1.0523988,0.5965901,-2.3448906,2647.7675715189957
-2.3448906,-1.1157937,-1.0743959,0.001153946,2647.769090815221
-0.018535258,-1.0855026,-0.0043994193,-2.2156487,2647.7706101114463
1.4862825,-0.0043272977,-0.004255176,0.9693147,2647.7721294076714
-1.5324404,-2.0654914,-2.3448906,-1.0901184,2647.773648703897
-1.1160101,-0.004255176,0.015001299,0.61505324,2647.7751680001224
-1.0873057,-2.3448906,-1.2555654,-1.0790117,2647.7766872963475
-0.0043272977,-0.18470348,1.5785983,-0.0043994193,2647.778206592573
1.479503,1.4862825,-1.0930033,-0.004255176,2647.7797258887986
-0.004255176,-1.6432192,0.6335164,-2.3448906,2647.7812451850236
-2.3448906,-1.1137743,-1.0789396,0.015001299,2647.782764481249
-0.31394544,-1.0829062,-0.0043994193,-1.7540702,2647.7842837774742
1.4862825,-0.0043272977,-0.004255176,0.9323884,2647.7858030736998
-1.6801455,1.4795752,-2.3448906,-1.0907675,2647.7873223699253
-1.1139907,-0.004255176,0.010385514,0.6519795,2647.7888416661503
-1.0862238,-2.3448906,-1.5325125,-1.0764153,2647.790360962376
-0.0043272977,-0.72013444,1.6709139,-0.0043994193,2647.791880258601
0.29800656,1.4862825,-1.091056,-0.004255176,2647.7933995548265
-0.004255176,-1.4401246,0.67044264,-2.3448906,2647.794918851052
-2.3448906,-1.1151446,-1.0715832,0.010385514,2647.796438147277
-0.79398704,-1.0846372,-0.0043994193,-1.3663442,2647.7979574435026
1.4862825,-0.0043272977,-0.004255176,1.0616304,2647.799476739728
-1.4770509,0.2980787,-2.3448906,-1.0924263,2647.800996035953
-1.1162264,-0.004255176,0.00576973,0.6889058,2647.8025153321787
-1.0868008,-2.3448906,-1.3663442,-1.0777856,2647.8040346284038
-0.0043272977,-0.42472428,0.84007275,-0.0043994193,2647.8055539246293
-0.8835621,1.4862825,-1.0911281,-0.004255176,2647.807073220855
-0.004255176,-1.8463137,0.7073689,-2.3448906,2647.80859251708
-2.3448906,-1.1152167,-1.0775692,0.00576973,2647.8101118133054
-0.16624035,-1.0817523,-0.0043994193,2.3632095,2647.811631109531
1.4862825,-0.0043272977,-0.004255176,1.1170198,2647.813150405756
-1.4031984,-0.88348997,-2.3448906,-1.0924263,2647.8146697019815
-1.1121155,-0.004255176,0.001153946,0.72583205,2647.8161889982066
-1.0834832,-2.3448906,-0.8309133,-1.076271,2647.817708294432
-0.0043272977,-0.3508717,1.4678193,-0.0043994193,2647.8192275906576
-2.0650587,1.4862825,-1.0932196,-0.004255176,2647.8207468868827
-0.004255176,-0.9046937,0.72583205,-2.3448906,2647.8222661831082
-2.3448906,-1.1157937,-1.0770644,0.001153946,2647.8237854793333
-0.68320817,-1.0855747,-0.0043994193,-1.7540702,2647.825304775559
1.4862825,-0.0043272977,-0.004255176,1.6709139,2647.8268240717844
-1.753998,-2.0649865,-2.3448906,-1.0918493,2647.8283433680094
-1.1143513,-0.004255176,0.015001299,0.7442952,2647.829862664235
-1.0831947,-2.3448906,-2.123333,-1.0772086,2647.8313819604605
-0.0043272977,-0.18470348,0.89546216,-0.0043994193,2647.8329012566855
1.4800079,1.4862825,-1.0896136,-0.004255176,2647.834420552911
-0.004255176,-1.9201663,0.7627584,-2.3448906,2647.835939849136
-2.3448906,-1.1140628,-1.0802377,0.015001299,2647.8374591453617
-0.25855604,-1.0854305,-0.0043994193,-1.1817129,2647.838978441587
1.4862825,-0.0043272977,-0.004255176,1.2462617,2647.8404977378123
-1.5324404,1.48008,-2.3448906,-1.093436,2647.842017034038
-1.1132694,-0.004255176,0.010385514,0.7812215,2647.8435363302633
-1.084565,-2.3448906,-1.4586599,-1.0775692,2647.8450556264884
-0.0043272977,-0.12931408,1.0616304,-0.0043994193,2647.846574922714
0.29851142,1.4862825,-1.0900463,-0.004255176,2647.848094218939
-0.004255176,-1.9201663,0.79968464,-2.3448906,2647.8496135151645
-2.3448906,-1.1147119,-1.077425,0.010385514,2647.85113281139
-0.4801137,-1.0838438,-0.0043994193,-1.9940909,2647.852652107615
1.4862825,-0.0043272977,-0.004255176,1.8370821,2647.8541714038406
-1.218567,0.29858354,-2.3448906,-1.0943736,2647.8556907000657
-1.1128367,-0.004255176,0.00576973,0.8181478,2647.857209996291
-1.085142,-2.3448906,-1.2371023,-1.0777856,2647.8587292925167
-0.0043272977,-0.2954823,1.0616304,-0.0043994193,2647.860248588742
-0.88305724,1.4862825,-1.0927869,-0.004255176,2647.8617678849673
-0.004255176,-1.88324,0.8366109,-2.3448906,2647.863287181193
-2.3448906,-1.11363,-1.079228,0.00576973,2647.864806477418
-0.12931408,-1.0855026,-0.0043994193,-1.6248282,2647.8663257736434
1.4862825,-0.0043272977,-0.004255176,1.153946,2647.8678450698685
-2.0678713,-0.8829851,-2.3448906,-1.0911281,2647.869364366094
-1.1106731,-0.004255176,0.001153946,0.85507405,2647.8708836623196
-1.0834111,-2.3448906,-1.8094596,-1.0805262,2647.8724029585446
-0.0043272977,-0.44318742,1.7447665,-0.0043994193,2647.87392225477
-2.0645537,1.4862825,-1.0920657,-0.004255176,2647.8754415509957
-0.004255176,-1.495514,0.85507405,-2.3448906,2647.8769608472207
-2.3448906,-1.1111058,-1.0786511,0.001153946,2647.8784801434463
-0.31394544,-1.0853584,-0.0043994193,-2.1787224,2647.8799994396713
1.4862825,-0.0043272977,-0.004255176,1.3939668,2647.881518735897
-1.2554933,-2.0644817,-2.3448906,-1.0890366,2647.8830380321224
-1.1132694,-0.004255176,0.015001299,0.8735372,2647.8845573283475
-1.0880269,-2.3448906,-1.7540702,-1.0772086,2647.886076624573
-0.0043272977,-0.62781876,1.3939668,-0.0043994193,2647.887595920798
1.4805127,1.4862825,-1.0896857,-0.004255176,2647.8891152170236
-0.004255176,-1.8647768,0.8920003,-2.3448906,2647.890634513249
-2.3448906,-1.1161543,-1.0769202,0.015001299,2647.892153809474
-0.110850945,-1.0834111,-0.0043994193,-2.0864067,2647.8936731056997
1.4862825,-0.0043272977,-0.004255176,1.3755037,2647.895192401925
-2.1786501,1.4805849,-2.3448906,-1.0927148,2647.8967116981503
-1.1127646,-0.004255176,0.010385514,0.91046345,2647.898230994376
-1.0882432,-2.3448906,-2.141796,-1.0789396,2647.899750290601
-0.0043272977,-0.75706077,0.9323884,-0.0043994193,2647.9012695868264
0.29901627,1.4862825,-1.0893251,-0.004255176,2647.902788883052
-0.004255176,-1.1262513,0.9289266,-2.3448906,2647.904308179277
-2.3448906,-1.1162264,-1.0771365,0.010385514,2647.9058274755025
-0.07392467,-1.0873057,-0.0043994193,2.2339675,2647.907346771728
1.4862825,-0.0043272977,-0.004255176,1.3755037,2647.908866067953
-1.5693667,0.2990884,-2.3448906,-1.0889645,2647.9103853641786
-1.1126204,-0.004255176,0.00576973,0.9473897,2647.9119046604037
-1.0844929,-2.3448906,-1.9940909,-1.0778577,2647.9134239566292
0.0021636488,-0.51696783,0.9877778,-0.0043994193,2647.9149432528548
-0.8825524,1.4862825,0.9318836,0.0036060815,2647.91646254908
-0.004255176,-1.4401246,0.96585286,-2.3632815,2647.9179818453053
-2.3448906,-1.1143513,-1.0793723,0.00576973,2647.9195011415304
2.2709658,0.93779755,-0.0043994193,-1.5694388,2647.921020437756
1.4862825,0.0036060815,0.0036060815,-1.8370821,2647.9225397339815
-1.8278506,-0.88248026,-2.3632815,0.93152297,2647.9240590302065
-1.1116828,-0.004255176,0.001153946,0.984316,2647.925578326432
0.9363551,-2.3448906,-1.0524709,-0.76369596,2647.9270976226576
0.0036060815,1.5509036,-1.1908723,0.0035339599,2647.9286169188827
-2.064049,1.4862825,0.9292151,0.0036060815,2647.930136215108
0.0036060815,-0.09231568,0.984316,-2.3632815,2647.9316555113332
-2.3632815,0.9023137,0.9420527,0.001153946,2647.9331748075588
1.5878298,0.93411934,0.0035339599,0.68313605,2647.9346941037843
1.4862825,0.0036060815,0.0036060815,-1.8555453,2647.9362134000094
0.05538941,-2.0639768,-2.3632815,0.9280611,2647.937732696235
0.9049822,0.003678203,0.015001299,1.0027791,2647.9392519924604
0.93642724,-2.3632815,0.48004156,0.94385576,2647.9407712886855
0.0036060815,1.6616824,-1.1908723,0.0034618382,2647.942290584911
1.4810176,1.4862825,0.93044114,0.0036060815,2647.943809881136
0.003678203,0.6462098,1.0212423,-2.3632815,2647.9453291773616
-2.3632815,0.90613616,0.9414036,0.015001299,2647.946848473587
1.9017031,0.93440783,0.0034618382,-0.27694705,2647.948367769812
1.4862825,0.0036060815,0.0036060815,-1.8001559,2647.9498870660377
0.22155765,1.4810897,-2.3632815,0.9297199,2647.951406362263
0.9057034,0.003678203,0.010385514,1.0397054,2647.9529256584883
0.93440783,-2.3632815,0.3507996,0.94176424,2647.954444954714
0.0036060815,1.495514,-1.6709139,0.0035339599,2647.955964250939
0.29952112,1.4862825,0.9306575,0.0036060815,2647.9574835471644
0.0036060815,-0.46157843,1.0581685,-2.3632815,2647.95900284339
-2.3632815,0.9056313,0.94053817,0.010385514,2647.960522139615
1.8463137,0.93707633,0.0034618382,-0.1477051,2647.9620414358405
1.4862825,0.0036060815,0.0036060815,-1.5047457,2647.9635607320656
-0.31387332,0.29959324,-2.3632815,0.9316672,2647.965080028291
0.90216947,0.003678203,0.00576973,1.0766317,2647.9665993245167
0.9360666,-2.3632815,0.53543097,0.9414036,2647.9681186207417
0.0036060815,1.4216615,-1.8370821,0.0035339599,2647.9696379169673
-0.88204753,1.4862825,0.9280611,0.0036060815,2647.971157213193
0.0036060815,-1.495514,1.0950948,-2.3632815,2647.972676509418
-2.3632815,0.9057034,0.94118726,0.00576973,2647.9741958056434
1.9017031,0.9369321,0.0035339599,0.31387332,2647.9757151018684
1.4862825,0.0036060815,0.0036060815,-0.8031465,2647.977234398094
-0.3507996,-0.8819754,-2.3632815,0.92777264,2647.9787536943195
0.90613616,0.003678203,0.001153946,1.1135579,2647.9802729905446
0.9388794,-2.3632815,0.5908204,0.9406824,2647.98179228677
0.0036060815,1.4216615,-1.6893771,0.0035339599,2647.983311582995
-2.063544,1.4862825,0.92885447,0.0036060815,2647.9848308792207
0.0036060815,-0.25848392,1.1135579,-2.3632815,2647.986350175446
-2.3632815,0.907218,0.9388794,0.001153946,2647.9878694716713
1.0523988,0.9346242,0.0034618382,-0.05538941,2647.989388767897
1.4862825,0.0036060815,0.0036060815,-2.1694186,2647.9909080641223
1.0339357,-2.063472,-2.3632815,0.925032,2647.9924273603474
0.9067131,0.0036060815,0.015001299,1.1320211,2647.993946656573
0.9369321,-2.3632815,0.3507996,0.9450097,2647.995465952798
0.0036060815,1.4216615,-1.6524508,0.0035339599,2647.9969852490235
1.4815224,1.4862825,0.92979205,0.0036060815,2647.998504545249
0.0036060815,-0.6462098,1.1504842,-2.3632815,2648.000023841474
-2.3632815,0.90844405,0.94082665,0.015001299,2648.0015431376996
1.4585878,0.93685997,0.0035339599,0.40618902,2648.003062433925
1.4862825,0.0036060815,0.0036060815,-1.5970614,2648.00458173015
0.0,1.4815946,-2.3632815,0.92885447,2648.0061010263757
0.90512645,0.003678203,0.010385514,1.1689473,2648.007620322601
0.93440783,-2.3632815,0.81237805,0.94017756,2648.0091396188263
0.0036060815,1.9017031,-0.6185151,0.0034618382,2648.010658915052
0.30002597,1.4862825,0.930369,0.0036060815,2648.012178211277
0.0036060815,-0.24002078,1.1874105,-2.3632815,2648.0136975075025
-2.3632815,0.90411675,0.9403939,0.010385514,2648.0152168037275
1.6986086,0.9372206,0.0035339599,0.0,2648.016736099953
1.4862825,0.0036060815,0.0036060815,-1.8370821,2648.0182553961786
-0.40618902,0.3000981,-2.3632815,0.92914295,2648.0197746924036
0.90512645,0.0036060815,0.00576973,1.2058736,2648.021293988629
0.93541753,-2.3632815,0.18463136,0.9427018,2648.0228132848547
0.0036060815,2.0678713,-1.7816927,0.0035339599,2648.0243325810798
-0.8815427,1.4862825,0.9299363,0.0036060815,2648.0258518773053
0.003678203,0.1477051,1.2243367,-2.3632815,2648.0273711735304
-2.3632815,0.9045495,0.94248545,0.00576973,2648.028890469756
1.7724612,0.93440783,0.0034618382,-0.018463137,2648.0304097659814
1.4862825,0.0036060815,0.0036060815,-1.6893771,2648.0319290622065
0.7754518,-0.88147056,-2.3632815,0.92885447,2648.033448358432
0.9030349,0.0036060815,0.001153946,1.2427999,2648.0349676546575
0.9353454,-2.3632815,0.25848392,0.941043,2648.0364869508826
0.0036060815,1.5878298,-0.6923676,0.0035339599,2648.038006247108
-2.0630393,1.4862825,0.9293593,0.0036060815,2648.039525543333
0.003678203,0.18463136,1.2427999,-2.3632815,2648.0410448395587
-2.3632815,0.9065689,0.9442885,0.001153946,2648.0425641357842
1.9201663,0.933903,0.0035339599,0.27694705,2648.0440834320093
1.4862825,0.0036060815,0.0036060815,-1.3201143,2648.045602728235
-0.31387332,-2.062967,-2.3632815,0.92748415,2648.04712202446
0.9039725,0.003678203,0.015001299,1.261263,2648.0486413206854
0.9340472,-2.3632815,-0.018463137,0.94212484,2648.050160616911
0.0036060815,0.8493043,-1.9663241,0.0035339599,2648.051679913136
1.4820273,1.4862825,0.92813325,0.0036060815,2648.0531992093615
0.003678203,0.68313605,1.2797261,-2.3632815,2648.054718505587
-2.3632815,0.90274644,0.9409709,0.015001299,2648.056237801812
1.1631776,0.9355618,0.0035339599,0.4431153,2648.0577570980377
1.4862825,0.0036060815,0.0036060815,-1.283188,2648.0592763942627
0.27694705,1.4820994,-2.3632815,0.9310181,2648.0607956904882
0.904261,0.003678203,0.010385514,1.2981893,2648.062314986714
0.9365715,-2.3632815,0.7754518,0.9427018,2648.063834282939
0.0036060815,1.6432192,-1.6155245,0.0035339599,2648.0653535791644
0.30053082,1.4862825,0.9282054,0.0036060815,2648.06687287539
0.0036060815,-0.18463136,1.3166524,-2.3632815,2648.068392171615
-2.3632815,0.90505433,0.9419085,0.010385514,2648.0699114678405
0.7939149,0.9355618,0.0035339599,0.09231568,2648.0714307640656
1.4862825,0.0036060815,0.0036060815,-1.6893771,2648.072950060291
0.11077882,0.30060294,-2.3632815,0.93080175,2648.0744693565166
0.9028907,0.0036060815,0.00576973,1.3351156,2648.0759886527417
0.93585026,-2.3632815,-0.33233646,0.94248545,2648.077507948967
0.0036060815,2.1232607,-1.4493562,0.0034618382,2648.0790272451923
-0.88103783,1.4862825,0.9312345,0.0036060815,2648.080546541418
0.0036060815,-0.42465216,1.3535787,-2.3632815,2648.0820658376433
-2.3632815,0.9051986,0.9409709,0.00576973,2648.0835851338684
1.4770509,0.93707633,0.0034618382,-0.05538941,2648.085104430094
1.4862825,0.0036060815,0.0036060815,-1.153946,2648.0866237263194
0.20309451,-0.8809657,-2.3632815,0.9272678,2648.0881430225445
0.9028907,0.003678203,0.001153946,1.3720418,2648.08966231877
0.9363551,-2.3632815,0.16616823,0.94277394,2648.091181614995
0.0036060815,1.495514,-2.0586398,0.0034618382,2648.0927009112206
-2.0625343,1.4862825,0.9286381,0.0036060815,2648.094220207446
0.0036060815,-0.09231568,1.3720418,-2.3632815,2648.095739503671
-2.3632815,0.9043331,0.9415479,0.001153946,2648.0972587998967
1.5509036,0.93253267,0.0035339599,0.46157843,2648.0987780961223
1.4862825,0.0036060815,0.0036060815,2.1509554,2648.1002973923473
-0.09231568,-2.0624623,-2.3632815,0.93152297,2648.101816688573
0.9041889,0.0036060815,0.015001299,1.390505,2648.103335984798
0.93347025,-2.3632815,0.33233646,0.9442885,2648.1048552810234
0.0036060815,1.1262513,-1.6893771,0.0035339599,2648.106374577249
1.4825321,1.4862825,0.93116236,0.0036060815,2648.107893873474
0.0036060815,-0.12924196,1.4089681,-2.3632815,2648.1094131696996
-2.3632815,0.9028907,0.94118726,0.015001299,2648.1109324659246
1.9386294,0.9363551,0.0035339599,0.5908204,2648.11245176215
1.4862825,0.0036060815,0.0036060815,-1.8001559,2648.1139710583757
-0.33233646,1.4826043,-2.3632815,0.93145084,2648.1154903546008
0.90274644,0.0036060815,0.010385514,1.4274312,2648.1170096508263
0.9363551,-2.3632815,0.81237805,0.9420527,2648.118528947052
0.0036060815,1.8463137,2.243271,0.0035339599,2648.120048243277
0.30103567,1.4862825,0.930369,0.0036060815,2648.1215675395024
0.003678203,0.97854626,1.4458944,-2.3632815,2648.1230868357275
-2.3632815,0.90317917,0.9420527,0.010385514,2648.124606131953
1.6432192,0.9349848,0.0034618382,-0.68313605,2648.1261254281785
1.4862825,0.0036060815,0.0036060815,-1.7447665,2648.1276447244036
-0.33233646,0.3011078,-2.3632815,0.9340472,2648.129164020629
0.90541494,0.0036060815,0.00576973,1.4643575,2648.1306833168546
0.93476844,-2.3632815,0.31387332,0.94241333,2648.1322026130797
0.0036060815,1.8647768,-2.1140292,0.0035339599,2648.133721909305
-0.880533,1.4862825,0.93015265,0.0036060815,2648.1352412055303
0.003678203,0.7200623,1.4828206,-2.3632815,2648.136760501756
-2.3632815,0.90577555,0.9425576,0.00576973,2648.1382797979813
1.9201663,0.93613875,0.0035339599,0.51696783,2648.1397990942064
1.4862825,0.0036060815,0.0036060815,-1.5047457,2648.141318390432
-0.33233646,-0.88046086,-2.3632815,0.93044114,2648.1428376866575
0.9062804,0.0036060815,0.001153946,1.5012839,2648.1443569828825
0.93375874,-2.3632815,0.036926273,0.941043,2648.145876279108
0.0036060815,1.6801455,-1.8924716,0.0035339599,2648.147395575333
-2.0620296,1.4862825,0.9299363,0.0036060815,2648.1489148715586
0.003678203,0.24002078,1.5012839,-2.3632815,2648.150434167784
-2.3632815,0.90505433,0.94284606,0.001153946,2648.1519534640092
2.030945,0.9335424,0.0034618382,-0.42465216,2648.1534727602348
1.4862825,0.0036060815,0.0036060815,-2.0586398,2648.15499205646
-0.20309451,-2.0619574,-2.3632815,0.92986417,2648.1565113526854
0.9046937,0.003678203,0.015001299,1.519747,2648.158030648911
0.9360666,-2.3632815,0.46157843,0.9412594,2648.159549945136
0.0036060815,1.5693667,-0.8216096,0.0035339599,2648.1610692413615
1.483037,1.4862825,0.92748415,0.0036060815,2648.162588537587
0.003678203,0.3877259,1.5382102,-2.3632815,2648.164107833812
-2.3632815,0.90346766,0.9406824,0.015001299,2648.1656271300376
1.3662721,0.93383086,0.0035339599,0.0,2648.1671464262627
1.4862825,0.0036060815,0.0036060815,-1.3201143,2648.168665722488
-0.40618902,1.4831091,-2.3632815,0.9279169,2648.1701850187137
0.904261,0.003678203,0.010385514,1.5566733,2648.171704314939
0.93815815,-2.3632815,0.16616823,0.9408988,2648.1732236111643
0.0036060815,2.1417239,-1.947861,0.0035339599,2648.17474290739
0.30154052,1.4862825,0.93152297,0.0036060815,2648.176262203615
0.003678203,0.51696783,1.5751364,-2.3632815,2648.1777814998404
-2.3632815,0.9055592,0.9427018,0.010385514,2648.1793007960655
1.7724612,0.9373648,0.0034618382,-0.3877259,2648.180820092291
1.4862825,0.0036060815,0.0036060815,-1.3385774,2648.1823393885165
0.6462098,0.30161265,-2.3632815,0.927989,2648.1838586847416
0.903684,0.003678203,0.00576973,1.5935996,2648.185377980967
0.93585026,-2.3632815,-0.6462098,0.9429182,2648.186897277192
0.0036060815,2.0863345,-2.1140292,0.0034618382,2648.1884165734177
-0.8800281,1.4862825,0.92878234,0.0036060815,2648.1899358696433
0.0036060815,-0.25848392,1.6120627,-2.3632815,2648.1914551658683
-2.3632815,0.9062804,0.94342303,0.00576973,2648.192974462094
1.7170718,0.93548965,0.0034618382,-0.36926273,2648.1944937583194
1.4862825,0.0036060815,0.0036060815,-1.8924716,2648.1960130545444
-0.33233646,-0.879956,-2.3632815,0.9275563,2648.19753235077
0.9078671,0.0036060815,0.001153946,1.6305258,2648.199051646995
0.9326769,-2.3632815,0.27694705,0.9425576,2648.2005709432206
0.0036060815,1.7355349,-1.2277986,0.0035339599,2648.202090239446
-2.0615246,1.4862825,0.92979205,0.0036060815,2648.203609535671
0.0036060815,-0.018463137,1.6305258,-2.3632815,2648.2051288318967
-2.3632815,0.9036119,0.94450486,0.001153946,2648.206648128122
1.1262513,0.9380139,0.0035339599,0.24002078,2648.2081674243473
1.4862825,0.0036060815,0.0036060815,-1.1354829,2648.209686720573
-0.27694705,-2.0614526,-2.3632815,0.9296478,2648.211206016798
0.9019531,0.0036060815,0.015001299,1.648989,2648.2127253130234
0.93548965,-2.3632815,0.12924196,0.94385576,2648.214244609249
0.0036060815,1.5139773,-1.7816927,0.0035339599,2648.215763905474
1.4835418,1.4862825,0.93116236,0.0036060815,2648.2172832016995
0.0036060815,-0.3877259,1.6674521,-2.3632815,2648.2188024979246
-2.3632815,0.9053428,0.9406824,0.015001299,2648.22032179415
1.4031984,0.9380139,0.0035339599,0.4985047,2648.2218410903756
1.4862825,0.0036060815,0.0036060815,-1.7078402,2648.2233603866007
-0.42465216,1.483614,-2.3632815,0.92914295,2648.224879682826
0.90173674,0.003678203,0.010385514,1.6859152,2648.2263989790517
0.93577814,-2.3632815,0.036926273,0.9440721,2648.227918275277
0.0036060815,1.9201663,-1.5047457,0.0035339599,2648.2294375715023
0.30204538,1.4862825,0.9302969,0.0036060815,2648.2309568677274
0.003678203,0.036926273,1.7043784,-2.3632815,2648.232476163953
-2.3632815,0.907218,0.9400333,0.010385514,2648.2339954601784
1.9570925,0.9359224,0.0035339599,0.036926273,2648.2355147564035
1.4862825,0.0036060815,0.0036060815,-1.1354829,2648.237034052629
-0.25848392,0.3021175,-2.3632815,0.9258975,2648.2385533488546
0.90649676,0.003678203,0.00576973,1.7228415,2648.2400726450796
0.9340472,-2.3632815,0.68313605,0.9396727,2648.241591941305
0.0036060815,1.8278506,-1.9663241,0.0034618382,2648.2431112375302
-0.8795233,1.4862825,0.9319557,0.0036060815,2648.2446305337558
0.003678203,0.16616823,1.7413046,-2.3632815,2648.2461498299813
-2.3632815,0.90274644,0.9388794,0.00576973,2648.2476691262063
1.3108827,0.9365715,0.0035339599,0.81237805,2648.249188422432
1.4862825,0.0036060815,0.0036060815,-1.4308931,2648.250707718657
0.6646729,-0.87945116,-2.3632815,0.92914295,2648.2522270148825
0.9045495,0.003678203,0.001153946,1.7597678,2648.253746311108
0.9336866,-2.3632815,-0.53543097,0.9419085,2648.255265607333
0.0036060815,0.9046937,-1.2462617,0.0035339599,2648.2567849035586
-2.06102,1.4862825,0.9289987,0.0036060815,2648.258304199784
0.003678203,0.16616823,1.7597678,-2.3632815,2648.259823496009
-2.3632815,0.9049822,0.94053817,0.001153946,2648.2613427922347
1.8093874,0.9349848,0.0034618382,-0.20309451,2648.2628620884598
1.4862825,0.0036060815,0.0036060815,-1.4308931,2648.2643813846853
0.12924196,-2.0609477,-2.3632815,0.9297199,2648.265900680911
0.9045495,0.003678203,0.015001299,1.7782309,2648.267419977136
0.93318176,-2.3632815,0.22155765,0.94241333,2648.2689392733614
0.0036060815,1.2554933,-1.9109347,0.0035339599,2648.270458569587
1.4840467,1.4862825,0.92907083,0.0036060815,2648.271977865812
0.003678203,0.0,1.796694,-2.3632815,2648.2734971620375
-2.3632815,0.90375614,0.94176424,0.015001299,2648.2750164582626
2.1786501,0.9399612,0.0035339599,0.3877259,2648.276535754488
1.4862825,0.0036060815,0.0036060815,-1.541672,2648.2780550507136
-0.4431153,1.4841188,-2.3632815,0.9293593,2648.2795743469387
0.9062804,0.003678203,0.010385514,1.8151572,2648.2810936431642
0.9350569,-2.3632815,0.62774664,0.941043,2648.2826129393893
0.0036060815,1.9386294,-1.9663241,0.0034618382,2648.284132235615
0.30255023,1.4862825,0.92943144,0.0036060815,2648.2856515318404
0.003678203,0.33233646,1.8336203,-2.3632815,2648.2871708280654
-2.3632815,0.9063525,0.94219697,0.010385514,2648.288690124291
1.3108827,0.9360666,0.0034618382,-0.46157843,2648.2902094205165
1.4862825,0.0036060815,0.0036060815,-2.1324923,2648.2917287167415
0.46157843,0.30262235,-2.3632815,0.9299363,2648.293248012967
0.90447736,0.0036060815,0.00576973,1.8520834,2648.294767309192
0.9383745,-2.3632815,-0.05538941,0.9426297,2648.2962866054177
0.0036060815,0.7754518,-1.2462617,0.0034618382,2648.297805901643
-0.8790184,1.4862825,0.9273399,0.0036060815,2648.2993251978683
0.003678203,0.018463137,1.8705466,-2.3632815,2648.300844494094
-2.3632815,0.9041889,0.9409709,0.00576973,2648.3023637903193
1.5139773,0.93585026,0.0035339599,0.46157843,2648.3038830865444
1.4862825,0.0036060815,0.0036060815,-2.243271,2648.30540238277
-0.22155765,-0.8789463,-2.3632815,0.9326769,2648.306921678995
0.90440524,0.0036060815,0.001153946,1.8890097,2648.3084409752205
0.936283,-2.3632815,0.4985047,0.94053817,2648.309960271446
0.0036060815,1.7909243,-1.7816927,0.0035339599,2648.311479567671
-2.060515,1.4862825,0.92885447,0.0036060815,2648.3129988638966
0.003678203,0.12924196,1.8890097,-2.3632815,2648.3145181601217
-2.3632815,0.90642464,0.9406103,0.001153946,2648.316037456347
1.5509036,0.93585026,0.0034618382,-0.11077882,2648.3175567525727
1.4862825,0.0036060815,0.0036060815,-1.2462617,2648.319076048798
0.24002078,-2.060443,-2.3632815,0.9260417,2648.3205953450233
0.9051986,0.0036060815,0.015001299,1.9074728,2648.322114641249
0.9363551,-2.3632815,0.40618902,0.9419806,2648.323633937474
0.0036060815,1.5139773,-1.3385774,0.0035339599,2648.3251532336994
1.4845515,1.4862825,0.9300084,0.0036060815,2648.3266725299245
0.003678203,0.40618902,1.925936,-2.3632815,2648.32819182615
-2.3632815,0.90584767,0.9415479,0.015001299,2648.3297111223756
2.2709658,0.93548965,0.0034618382,-0.42465216,2648.3312304186006
1.4862825,0.0036060815,0.0036060815,-1.153946,2648.332749714826
0.46157843,1.4846237,-2.3632815,0.92907083,2648.3342690110517
0.90880466,0.0036060815,0.010385514,1.9443991,2648.3357883072767
0.9367157,-2.3632815,-0.31387332,0.94118726,2648.3373076035023
0.0036060815,1.7170718,-1.4678193,0.0035339599,2648.3388268997273
0.30305508,1.4862825,0.9280611,0.0036060815,2648.340346195953
0.003678203,0.46157843,1.9628623,-2.3632815,2648.3418654921784
-2.3632815,0.9073622,0.94162,0.010385514,2648.3433847884035
1.495514,0.9363551,0.0034618382,-0.6646729,2648.344904084629
1.4862825,0.0036060815,0.0036060815,-1.3939668,2648.346423380854
0.11077882,0.3031272,-2.3632815,0.9275563,2648.3479426770796
0.90317917,0.0036060815,0.00576973,1.9813254,2648.349461973305
0.93447995,-2.3632815,0.3507996,0.9413315,2648.35098126953
0.0036060815,1.4401246,-1.3201143,0.0035339599,2648.3525005657557
-0.8785136,1.4862825,0.92878234,0.0036060815,2648.354019861981
0.003678203,0.8862306,1.9997885,-2.3632815,2648.3555391582063
-2.3632815,0.9030349,0.941043,0.00576973,2648.357058454432
1.7170718,0.9350569,0.0035339599,0.62774664,2648.358577750657
1.4862825,0.0036060815,0.0036060815,-1.7447665,2648.3600970468824
0.05538941,-0.87844145,-2.3632815,0.9305854,2648.361616343108
0.9033234,0.003678203,0.001153946,2.0182517,2648.363135639333
0.9342636,-2.3632815,-0.20309451,0.94277394,2648.3646549355585
0.0036060815,1.1262513,-1.6155245,0.0035339599,2648.366174231784
-2.0600102,1.4862825,0.92712355,0.0036060815,2648.367693528009
0.0036060815,-0.24002078,2.0182517,-2.3632815,2648.3692128242346
-2.3632815,0.9072901,0.94241333,0.001153946,2648.3707321204597
1.2739564,0.93642724,0.0035339599,0.11077882,2648.3722514166852
1.4862825,0.0036060815,0.0036060815,-1.4678193,2648.3737707129108
-0.05538941,-2.059938,-2.3632815,0.9318836,2648.375290009136
0.9046216,0.0036060815,0.015001299,2.0367148,2648.3768093053613
0.93512905,-2.3632815,0.31387332,0.9423412,2648.3783286015864
0.0036060815,1.6432192,-1.6893771,0.0034618382,2648.379847897812
1.4850564,1.4862825,0.92986417,0.0036060815,2648.3813671940375
0.0036060815,-0.27694705,2.055178,-2.3632815,2648.3828864902625
-2.3632815,0.9070016,0.9422691,0.015001299,2648.384405786488
1.5139773,0.93714845,0.0034618382,-0.3507996,2648.3859250827136
1.4862825,0.0036060815,0.0036060815,-1.541672,2648.3874443789387
-0.24002078,1.4851285,-2.3632815,0.9269793,2648.388963675164
0.90577555,0.0036060815,0.010385514,2.073641,2648.3904829713892
0.9342636,-2.3632815,0.25848392,0.94241333,2648.3920022676148
0.0036060815,1.5324404,-1.8001559,0.0035339599,2648.3935215638403
0.30355993,1.4862825,0.9277005,0.0036060815,2648.3950408600654
0.003678203,0.1477051,2.0921042,-2.3632815,2648.396560156291
-2.3632815,0.90707374,0.94075453,0.010385514,2648.3980794525164
1.1816407,0.9362109,0.0035339599,0.31387332,2648.3995987487415
1.4862825,0.0036060815,0.0036060815,-0.8585359,2648.401118044967
0.0,0.30363205,-2.3632815,0.9295757,2648.402637341192
0.90476584,0.003678203,0.00576973,2.1105673,2648.4041566374176
0.9359945,-2.3632815,-0.25848392,0.94162,2648.405675933643
0.0036060815,2.1786501,-2.1694186,0.0035339599,2648.407195229868
-0.8780087,1.4862825,0.92885447,0.0036060815,2648.4087145260937
0.0036060815,-0.73852545,2.1290305,-2.3632815,2648.410233822319
-2.3632815,0.9046937,0.93916786,0.00576973,2648.4117531185443
1.495514,0.9353454,0.0035339599,0.036926273,2648.41327241477
1.4862825,0.0036060815,0.0036060815,-0.876999,2648.414791710995
0.07385255,-0.8779366,-2.3632815,0.92777264,2648.4163110072204
0.9032513,0.0036060815,0.001153946,2.1474936,2648.417830303446
0.9356339,-2.3632815,0.25848392,0.9419806,2648.419349599671
0.0036060815,1.2554933,-1.9847872,0.0034618382,2648.4208688958965
-2.0595052,1.4862825,0.92885447,0.0036060815,2648.4223881921216
0.0036060815,-0.81237805,2.1474936,-2.3632815,2648.423907488347
-2.3632815,0.9055592,0.94385576,0.001153946,2648.4254267845727
1.2923474,-0.72489446,0.0035339599,0.40618902,2648.4269460807977
1.4862825,-0.0043272977,-0.004255176,1.4308931,2648.4284653770233
0.24002078,-2.0594332,-2.3448906,-1.0901905,2648.429984673249
0.90606403,0.0036060815,0.015001299,2.1659567,2648.431503969474
-1.0839881,-2.3632815,-0.11077882,0.938663,2648.4330232656994
-0.0043272977,-0.055461533,0.60005194,0.0035339599,2648.4345425619244
1.4855613,1.4862825,-1.0932196,-0.004255176,2648.43606185815
0.0036060815,-0.31387332,2.1844199,-2.3448906,2648.4375811543755
-2.3632815,0.9051986,0.9414036,0.015001299,2648.4391004506006
-0.4801137,-1.085142,0.0022357705,-0.75698864,2648.440619746826
1.4862825,-0.0043272977,-0.004255176,0.5261994,2648.442139043051
-1.88324,1.4856334,-2.3448906,-1.0941572,2648.4436583392767
-1.112404,-0.004255176,0.010385514,2.202883,2648.445177635502
-1.0848535,-2.3448906,-1.4032705,-1.0754777,2648.4466969317273
-0.0043272977,-0.51703995,0.50773627,-0.0043994193,2648.448216227953
0.30406478,1.4862825,-1.0914887,-0.004255176,2648.4497355241783
-0.004255176,-1.6247561,2.2213461,-2.3448906,2648.4512548204034
-2.3448906,-1.1148561,-1.0799493,0.010385514,2648.452774116629
-0.12931408,-1.0846372,-0.0043994193,-1.477123,2648.454293412854
1.4862825,-0.0043272977,-0.004255176,1.2462617,2648.4558127090795
-1.6432192,0.3041369,-2.3448906,-1.0907675,2648.457332005305
-1.1145676,-0.004255176,0.00576973,2.2398093,2648.45885130153
-1.0861517,-2.3448906,-1.6802176,-1.0759826,2648.4603705977556
-0.0043272977,-0.14777721,0.8031465,-0.0043994193,2648.461889893981
-0.8775039,1.4862825,-1.0904069,-0.004255176,2648.463409190206
-0.004255176,-1.6432192,2.2582724,-2.3448906,2648.4649284864317
-2.3448906,-1.1129088,-1.075045,0.00576973,2648.466447782657
-0.2954823,-1.0840602,-0.0043994193,-1.2186391,2648.4679670788823
1.4862825,-0.0043272977,-0.004255176,1.4678193,2648.469486375108
-1.3847352,-0.87743175,-2.3448906,-1.0918493,2648.471005671333
-1.114784,-0.004255176,0.001153946,2.2767355,2648.4725249675585
-1.0841323,-2.3448906,-1.3478811,-1.077425,2648.4740442637835
-0.0043272977,-0.68320817,0.876999,-0.0043994193,2648.475563560009
-2.0590005,1.4862825,-1.0913445,-0.004255176,2648.4770828562346
-0.004255176,-1.3293458,2.2767355,-2.3448906,2648.4786021524596
-2.3448906,-1.1152889,-1.0754777,0.001153946,2648.480121448685
-0.2954823,-1.0860075,-0.0043994193,-2.3264275,2648.4816407449107
1.4862825,-0.0043272977,-0.004255176,1.5232089,2648.4831600411358
-1.753998,-2.0589283,-2.3448906,-1.09459,2648.4846793373613
-1.1137022,-0.004255176,0.015001299,2.2951987,2648.4861986335864
-1.0863681,-2.3448906,-2.3079643,-1.075622,2648.487717929812
-0.0043272977,-0.8678396,1.2093354,-0.0043994193,2648.4892372260374
1.4860661,1.4862825,-1.0907675,-0.004255176,2648.4907565222625
-0.004255176,-1.6986086,2.3136618,-2.3448906,2648.492275818488
-2.3448906,-1.1127646,-1.0761989,0.015001299,2648.4937951147135
0.073780425,-1.084565,-0.0043994193,-1.9571646,2648.4953144109386
1.4862825,-0.0043272977,-0.004255176,0.9877778,2648.496833707164
-2.0494082,1.4861382,-2.3448906,-1.0918493,2648.498353003389
-1.1172361,-0.004255176,0.010385514,2.332125,2648.4998722996147
-1.0862238,-2.3448906,-1.4586599,-1.078002,2648.5013915958402
-0.0043272977,-0.66474503,1.4308931,-0.0043994193,2648.5029108920653
0.30456963,1.4862825,-1.091633,-0.004255176,2648.504430188291
-0.004255176,-2.012482,2.350588,-2.3448906,2648.505949484516
-2.3448906,-1.1151446,-1.075622,0.010385514,2648.5074687807414
-1.0340078,-1.0858632,-0.0043994193,-1.3109548,2648.508988076967
1.4862825,-0.0043272977,-0.004255176,0.89546216,2648.510507373192
-1.6801455,0.30464175,-2.3448906,-1.0918493,2648.5120266694175
-1.1158658,-0.004255176,0.00576973,-2.3575118,2648.513545965643
-1.0829784,-2.3448906,-1.4032705,-1.0764874,2648.515065261868
-0.0043272977,-0.055461533,0.6369782,-0.0043994193,2648.5165845580937
-0.876999,1.4862825,-1.0917051,-0.004255176,2648.5181038543187
-0.004255176,-2.012482,-2.3390486,-2.3448906,2648.5196231505442
-2.3448906,-1.1140628,-1.079228,0.00576973,2648.5211424467698
-0.4801137,-1.0846372,-0.0043994193,-1.9017752,2648.522661742995
1.4862825,-0.0043272977,-0.004255176,0.9877778,2648.5241810392204
-1.5509036,-0.8769269,-2.3448906,-1.0905511,2648.525700335446
-1.1129088,-0.004255176,0.001153946,-2.3205855,2648.527219631671
-1.0854305,-2.3448906,-1.6617545,-1.0759104,2648.5287389278965
-0.0043272977,-0.5539662,1.0985566,-0.0043994193,2648.5302582241216
-2.0584955,1.4862825,-1.0906233,-0.004255176,2648.531777520347
-0.004255176,-1.6247561,-2.3205855,-2.3448906,2648.5332968165726
-2.3448906,-1.1160822,-1.0802377,0.001153946,2648.5348161127977
-0.7755239,-1.082762,-0.0043994193,-1.7909964,2648.536335409023
1.4862825,-0.0043272977,-0.004255176,1.947861,2648.5378547052483
-1.7909243,-2.0584235,-2.3448906,-1.0920657,2648.539374001474
-1.1168034,-0.004255176,0.015001299,-2.3021224,2648.5408932976993
-1.0864402,-2.3448906,-1.7540702,-1.0779299,2648.5424125939244
-0.0043272977,-0.44318742,1.2093354,-0.0043994193,2648.54393189015
1.486571,1.4862825,-1.0907675,-0.004255176,2648.5454511863754
-0.004255176,-1.8647768,-2.2836592,-2.3448906,2648.5469704826005
-2.3448906,-1.1158658,-1.0776414,0.015001299,2648.548489778826
-0.44318742,-1.083916,-0.0043994193,-1.9017752,2648.550009075051
1.4862825,-0.0043272977,-0.004255176,0.60005194,2648.5515283712766
-1.4401246,1.4866431,-2.3448906,-1.091633,2648.553047667502
-1.1145676,-0.004255176,0.010385514,-2.265196,2648.554566963727
-1.0868008,-2.3448906,-2.0494804,-1.0764874,2648.5560862599527
-0.0043272977,-0.66474503,0.9323884,-0.0043994193,2648.5576055561783
0.30507448,1.4862825,-1.0877384,-0.004255176,2648.5591248524033
-0.004255176,-2.1047976,-2.246733,-2.3448906,2648.560644148629
-2.3448906,-1.115938,-1.0783626,0.010385514,2648.562163444854
-0.62781876,-1.087522,-0.0043994193,-1.7909964,2648.5636827410794
1.4862825,-0.0043272977,-0.004255176,0.78468335,2648.565202037305
1.7170718,0.3051466,-2.3448906,-1.0909117,2648.56672133353
-1.1138464,-0.004255176,0.00576973,-2.2282698,2648.5682406297556
-1.0842044,-2.3448906,-2.0494804,-1.0777856,2648.569759925981
-0.0043272977,-0.20316663,1.4308931,-0.0043994193,2648.571279222206
-0.87649417,1.4862825,-1.0930754,-0.004255176,2648.5727985184317
-0.004255176,-2.2709658,-2.2098067,-2.3448906,2648.5743178146568
-2.3448906,-1.1162986,-1.0795165,0.00576973,2648.5758371108823
-0.90476584,-1.0867287,-0.0043994193,-1.7725333,2648.577356407108
1.4862825,-0.0043272977,-0.004255176,0.6185151,2648.578875703333
-1.7170718,-0.87642205,-2.3448906,-1.0909117,2648.5803949995584
-1.1095191,-0.004255176,0.001153946,-2.1913435,2648.5819142957835
-1.087522,-2.3448906,-1.7725333,-1.0788674,2648.583433592009
-0.0043272977,-0.8678396,1.7447665,-0.0043994193,2648.5849528882345
-2.0579908,1.4862825,-1.0882432,-0.004255176,2648.5864721844596
-0.004255176,-1.5878298,-2.1913435,-2.3448906,2648.587991480685
-2.3448906,-1.1150725,-1.0786511,0.001153946,2648.5895107769106
-0.3508717,-1.0834111,-0.0043994193,-0.51703995,2648.5910300731357
1.4862825,-0.0043272977,-0.004255176,1.3201143,2648.592549369361
-1.1262513,-2.0579185,-2.3448906,-1.091633,2648.5940686655863
-1.1162264,-0.004255176,0.015001299,-2.1728804,2648.595587961812
-1.0866566,-2.3448906,-2.0864067,-1.0772808,2648.5971072580373
-0.0043272977,-1.3848073,1.9293978,-0.0043994193,2648.5986265542624
1.4870758,1.4862825,-1.0904069,-0.004255176,2648.600145850488
-0.004255176,-1.3293458,-2.1544173,-2.3448906,2648.6016651467135
-2.3448906,-1.1133416,-1.0801656,0.015001299,2648.6031844429385
-0.72013444,-1.088099,-0.0043994193,-0.75706077,2648.604703739164
1.4862825,-0.0043272977,-0.004255176,0.56312567,2648.606223035389
-1.7170718,1.4871479,-2.3448906,-1.0896857,2648.6077423316146
-1.1144234,-0.004255176,0.010385514,-2.1359541,2648.60926162784
-1.0834111,-2.3448906,-0.9970815,-1.0783626,2648.6107809240652
-0.0043272977,-0.018535258,0.7292939,-0.0043994193,2648.6123002202908
0.30557933,1.4862825,-1.0936524,-0.004255176,2648.613819516516
-0.004255176,-1.4031984,-2.117491,-2.3448906,2648.6153388127414
-2.3448906,-1.1144234,-1.0777856,0.010385514,2648.616858108967
-0.2954823,-1.0860796,-0.0043994193,-1.3109548,2648.618377405192
1.4862825,-0.0043272977,-0.004255176,0.6739045,2648.6198967014175
-2.2155764,0.30565146,-2.3448906,-1.0894693,2648.621415997643
-1.1126204,-0.004255176,0.00576973,-2.0990279,2648.622935293868
-1.0870893,-2.3448906,-1.2740285,-1.0764874,2648.6244545900936
-0.0043272977,-0.2400929,1.0616304,-0.0043994193,2648.6259738863187
-0.8759893,1.4862825,-1.0919214,-0.004255176,2648.627493182544
-0.004255176,-2.1971133,-2.0805647,-2.3448906,2648.6290124787697
-2.3448906,-1.1141349,-1.0765595,0.00576973,2648.630531774995
-0.4801137,-1.0872335,-0.0043994193,-1.2740285,2648.6320510712203
1.4862825,-0.0043272977,-0.004255176,1.0985566,2648.633570367446
-1.4770509,-0.8759172,-2.3448906,-1.0893251,2648.635089663671
-1.1162264,-0.004255176,0.001153946,-2.0621016,2648.6366089598964
-1.086945,-2.3448906,-1.9571646,-1.0787232,2648.6381282561215
-0.0043272977,-0.49857682,1.0616304,-0.0043994193,2648.639647552347
-2.0574858,1.4862825,-1.0871614,-0.004255176,2648.6411668485725
-0.004255176,-1.6801455,-2.0621016,-2.3448906,2648.6426861447976
-2.3448906,-1.1149282,-1.0745401,0.001153946,2648.644205441023
-0.20316663,-1.0868008,-0.0043994193,-2.1971855,2648.645724737248
1.4862825,-0.0043272977,-0.004255176,1.3385774,2648.6472440334737
-1.4585878,-2.0574138,-2.3448906,-1.0937966,2648.6487633296992
-1.1132694,-0.004255176,0.015001299,-2.0436385,2648.6502826259243
-1.0850699,-2.3448906,-1.2555654,-1.0786511,2648.65180192215
-0.0043272977,-0.7755239,0.6923676,-0.0043994193,2648.6533212183754
1.4875807,1.4862825,-1.0913445,-0.004255176,2648.6548405146004
-0.004255176,-1.495514,-2.0251753,-2.3448906,2648.656359810826
-2.3448906,-1.1162264,-1.0755498,0.015001299,2648.657879107051
-0.27701917,-1.0854305,-0.0043994193,-2.141796,2648.6593984032766
1.4862825,-0.0043272977,-0.004255176,1.153946,2648.660917699502
-1.0708619,1.4876528,-2.3448906,-1.0920657,2648.662436995727
-1.112981,-0.004255176,0.010385514,-2.0067122,2648.6639562919527
-1.0865844,-2.3448906,-0.79398704,-1.0730977,2648.665475588178
-0.0043272977,-0.25855604,1.2647249,-0.0043994193,2648.6669948844033
0.3060842,1.4862825,-1.0930033,-0.004255176,2648.668514180629
-0.004255176,-1.1816407,-1.9882491,-2.3448906,2648.670033476854
-2.3448906,-1.1157937,-1.0739632,0.010385514,2648.6715527730794
-0.5539662,-1.0855747,-0.0043994193,-1.1078603,2648.673072069305
1.4862825,-0.0043272977,-0.004255176,0.9693147,2648.67459136553
-2.0678713,0.3061563,-2.3448906,-1.0883875,2648.6761106617555
-1.1120434,-0.004255176,0.00576973,-1.9697859,2648.6776299579806
-1.085142,-2.3448906,-1.070934,-1.078579,2648.679149254206
-0.0043272977,-0.2954823,0.747757,-0.0043994193,2648.6806685504316
-0.87548447,1.4862825,-1.0920657,-0.004255176,2648.6821878466567
-0.004255176,-1.6247561,-1.9513228,-2.3448906,2648.683707142882
-2.3448906,-1.1127646,-1.0786511,0.00576973,2648.6852264391077
-0.62781876,-1.0823293,-0.0043994193,-1.070934,2648.686745735333
1.4862825,-0.0043272977,-0.004255176,0.747757,2648.6882650315583
-1.495514,-0.87541234,-2.3448906,-1.0898299,2648.6897843277834
-1.114207,-0.004255176,0.001153946,-1.9328597,2648.691303624009
-1.0837717,-2.3448906,-1.7171439,-1.0788674,2648.6928229202344
-0.0043272977,-0.2954823,0.7662202,-0.0043994193,2648.6943422164595
-2.056981,1.4862825,-1.0888923,-0.004255176,2648.695861512685
-0.004255176,-1.8278506,-1.9328597,-2.3448906,2648.6973808089106
-2.3448906,-1.114207,-1.0758383,0.001153946,2648.6989001051356
-0.4801137,-1.0870893,-0.0043994193,-1.9387015,2648.700419401361
1.4862825,-0.0043272977,-0.004255176,0.6185151,2648.7019386975862
-1.5509036,-2.0569088,-2.3448906,-1.0887481,2648.7034579938118
-1.114784,-0.004255176,0.015001299,-1.9143965,2648.7049772900373
-1.0839881,-2.3448906,-1.8279227,-1.0777135,2648.7064965862623
-0.0043272977,-0.57242936,0.84007275,-0.0043994193,2648.708015882488
1.4880855,1.4862825,-1.0927869,-0.004255176,2648.709535178713
-0.004255176,-2.1417239,-1.8959334,-2.3448906,2648.7110544749385
-2.3448906,-1.1139907,-1.0795887,0.015001299,2648.712573771164
0.073780425,-1.0864402,-0.0043994193,-0.7385976,2648.714093067389
1.4862825,-0.004255176,-0.004255176,1.0247041,2648.7156123636146
-1.1077882,1.4881576,-2.3448906,-1.0904069,2648.71713165984
-1.1174525,-0.004255176,0.010385514,-1.8774703,2648.718650956065
-1.0840602,-2.3448906,-1.4955862,-1.0778577,2648.7201702522907
-0.0043272977,-0.12931408,1.0800935,-0.0043994193,2648.7216895485158
0.30658904,1.4862825,-1.0899742,-0.004255176,2648.7232088447413
-0.004255176,-1.4216615,-1.8590071,-2.3448906,2648.724728140967
-2.3448906,-1.1132694,-1.0784347,0.010385514,2648.726247437192
-0.4801137,-1.0848535,-0.0043994193,-1.6063651,2648.7277667334174
1.4862825,-0.004255176,-0.004255176,1.1354829,2648.729286029643
-1.4585878,0.30666116,-2.3448906,-1.0920657,2648.730805325868
-1.1139907,-0.004255176,0.00576973,-1.840544,2648.7323246220935
-1.0866566,-2.3448906,-0.9786184,-1.0785068,2648.7338439183186
-0.0043272977,-0.14777721,1.1724092,-0.0043994193,2648.735363214544
-0.8749796,1.4862825,-1.0913445,-0.004255176,2648.7368825107696
-0.004255176,-1.347809,-1.8220809,-2.3448906,2648.7384018069947
-2.3448906,-1.1170919,-1.0752614,0.00576973,2648.7399211032202
-0.44318742,-1.0852141,-0.0043994193,-0.84937644,2648.7414403994453
1.4862825,-0.0043272977,-0.004255176,0.84007275,2648.742959695671
-1.3662721,-0.8749075,-2.3448906,-1.0883154,2648.7444789918964
-1.112981,-0.004255176,0.001153946,-1.8036177,2648.7459982881214
-1.0860796,-2.3448906,-1.3109548,-1.0772808,2648.747517584347
-0.0043272977,-0.31394544,1.4862825,-0.0043994193,2648.7490368805725
-2.056476,1.4862825,-1.090479,-0.004255176,2648.7505561767975
-0.004255176,-1.5509036,-1.8036177,-2.3448906,2648.752075473023
-2.3448906,-1.1148561,-1.0772086,0.001153946,2648.753594769248
-0.9786184,-1.0871614,-0.0043994193,-1.9387015,2648.7551140654737
1.4862825,-0.0043272977,-0.004255176,0.23078921,2648.756633361699
-1.2554933,-2.056404,-2.3448906,-1.0943736,2648.7581526579243
-1.1134858,-0.004255176,0.015001299,-1.7851546,2648.75967195415
-1.0844929,-2.3448906,-1.5325125,-1.0769202,2648.7611912503753
-0.0043272977,-0.72013444,0.9693147,-0.0043994193,2648.7627105466004
1.4885904,1.4862825,-1.0890366,-0.004255176,2648.764229842826
-0.004255176,-1.6432192,-1.7666914,-2.3448906,2648.765749139051
-2.3448906,-1.114784,-1.0764153,0.015001299,2648.7672684352765
-0.40626115,-1.0857911,-0.0043994193,-0.9970815,2648.768787731502
1.4862825,-0.0043272977,-0.004255176,1.0616304,2648.770307027727
-1.9570925,1.4886625,-2.3448906,-1.0924263,2648.7718263239526
-1.1174525,-0.004255176,0.010385514,-1.7482283,2648.7733456201777
-1.0873057,-2.3448906,-0.79398704,-1.0776414,2648.774864916403
-0.0043272977,-0.31394544,1.1354829,-0.0043994193,2648.7763842126287
0.3070939,1.4862825,-1.0911281,-0.004255176,2648.777903508854
-0.004255176,-2.1417239,-1.7297652,-2.3448906,2648.7794228050793
-2.3448906,-1.1115385,-1.076848,0.010385514,2648.780942101305
-0.84937644,-1.083339,-0.0043994193,-1.9387015,2648.78246139753
1.4862825,-0.004255176,-0.004255176,1.0800935,2648.7839806937554
-1.495514,0.307166,-2.3448906,-1.0918493,2648.7854999899805
-1.1148561,-0.004255176,0.00576973,-1.711302,2648.787019286206
-1.0847814,-2.3448906,-1.6063651,-1.0775692,2648.7885385824316
-0.0043272977,-1.0340078,1.5785983,-0.0043994193,2648.7900578786566
-0.87447476,1.4862825,-1.0925705,-0.004255176,2648.791577174882
-0.004255176,-2.0863345,-1.6928389,-2.3448906,2648.7930964711077
-2.3448906,-1.1148561,-1.081608,0.00576973,2648.7946157673327
-0.07392467,-1.0853584,-0.0043994193,-1.7540702,2648.7961350635583
1.4862825,-0.0043272977,-0.004255176,0.37849432,2648.7976543597833
-1.1816407,-0.87440264,-2.3448906,-1.0917772,2648.799173656009
-1.1161543,-0.004255176,0.001153946,-1.6743758,2648.8006929522344
-1.0849978,-2.3448906,-2.1602592,-1.0770644,2648.8022122484595
-0.004255176,0.05531729,0.9693147,-0.0043994193,2648.803731544685
-2.0559714,1.4862825,-1.0888202,-0.004255176,2648.80525084091
-0.004255176,-1.5878298,-1.6743758,-2.3448906,2648.8067701371356
-2.3448906,-1.1133416,-1.0759104,0.001153946,2648.808289433361
0.09224356,-1.0859354,-0.0043994193,-1.7725333,2648.809808729586
1.4862825,-0.0043272977,-0.004255176,0.6923676,2648.8113280258117
-1.9201663,-2.0558991,-2.3448906,-1.0906233,2648.812847322037
-1.1138464,-0.004255176,0.015001299,-1.6559126,2648.8143666182623
-1.086296,-2.3448906,-1.6248282,-1.078579,2648.815885914488
-0.0043272977,-0.4801137,1.2093354,-0.0043994193,2648.817405210713
1.4890952,1.4862825,-1.094013,-0.004255176,2648.8189245069384
-0.004255176,-1.8278506,-1.6374495,-2.3448906,2648.820443803164
-2.3448906,-1.1130531,-1.0793723,0.015001299,2648.821963099389
-0.16624035,-1.083916,-0.0043994193,-2.2156487,2648.8234823956145
1.4862825,-0.0043272977,-0.004255176,1.3939668,2648.82500169184
2.3448184,1.4891673,-2.3448906,-1.092282,2648.826520988065
-1.1138464,-0.004255176,0.010385514,-1.6189864,2648.8280402842906
-1.0848535,-2.3448906,-0.96015525,-1.0754056,2648.8295595805157
-0.0043272977,-0.4801137,0.65544134,-0.0043994193,2648.8310788767412
0.30759874,1.4862825,-1.0900463,-0.004255176,2648.8325981729668
-0.004255176,-1.6616824,-1.6005232,-2.3448906,2648.834117469192
-2.3448906,-1.1108173,-1.0752614,0.010385514,2648.8356367654173
-0.5355031,-1.0844208,-0.0043994193,-1.2555654,2648.8371560616424
1.4862825,-0.0043272977,-0.004255176,1.2093354,2648.838675357868
-2.2155764,0.30767086,-2.3448906,-1.0914887,2648.8401946540935
-1.1135579,-0.004255176,0.00576973,-1.5820601,2648.8417139503185
-1.0865844,-2.3448906,-1.4586599,-1.0739632,2648.843233246544
-0.0043272977,-0.46165055,1.1908723,-0.0043994193,2648.8447525427696
-0.8739699,1.4862825,-1.0953112,-0.004255176,2648.8462718389947
-0.004255176,-1.218567,-1.563597,-2.3448906,2648.84779113522
-2.3448906,-1.1143513,-1.0759826,0.00576973,2648.8493104314452
-0.79398704,-1.083339,-0.0043994193,-2.1787224,2648.8508297276708
1.4862825,-0.004255176,-0.004255176,1.3939668,2648.8523490238963
-2.307892,-0.8738978,-2.3448906,-1.0893251,2648.8538683201214
-1.112404,-0.004255176,0.001153946,-1.5451338,2648.855387616347
-1.0854305,-2.3448906,-1.5694388,-1.0788674,2648.8569069125724
-0.0043272977,-0.8678396,0.65544134,-0.0043994193,2648.8584262087975
-2.0554664,1.4862825,-1.0902627,-0.004255176,2648.859945505023
-0.004255176,-1.0339357,-1.5451338,-2.3448906,2648.861464801248
-2.3448906,-1.1109616,-1.0725929,0.001153946,2648.8629840974736
-0.72013444,-1.0849978,-0.0043994193,-1.5140494,2648.864503393699
1.4862825,-0.0043272977,-0.004255176,1.0247041,2648.866022689924
-1.6432192,-2.0553944,-2.3448906,-1.0914887,2648.8675419861497
-1.1154331,-0.004255176,0.015001299,-1.5266707,2648.869061282375
-1.0842766,-2.3448906,-1.2186391,-1.0767759,2648.8705805786003
-0.0043272977,-0.18470348,1.818619,-0.0043994193,2648.872099874826
1.4896001,1.4862825,-1.0907675,-0.004255176,2648.873619171051
-0.004255176,-1.6616824,-1.5082076,-2.3448906,2648.8751384672764
-2.3448906,-1.1120434,-1.0771365,0.015001299,2648.876657763502
-0.44318742,-1.0852863,-0.0043994193,-1.070934,2648.878177059727
1.4862825,-0.0043272977,-0.004255176,1.4493562,2648.8796963559525
-1.6801455,1.4896722,-2.3448906,-1.0931475,2648.8812156521776
-1.1135579,-0.004255176,0.010385514,-1.4897443,2648.882734948403
-1.082185,-2.3448906,-2.141796,-1.0802377,2648.8842542446287
-0.0043272977,-0.8309133,1.8370821,-0.0043994193,2648.8857735408537
0.3081036,1.4862825,-1.0921378,-0.004255176,2648.8872928370793
-0.004255176,-1.6247561,-1.4712812,-2.3448906,2648.888812133305
-2.3448906,-1.1149282,-1.0754777,0.010385514,2648.89033142953
-0.9416921,-1.0853584,-0.0043994193,-1.3848073,2648.8918507257554
1.4862825,-0.0043272977,-0.004255176,1.7632296,2648.8933700219804
-1.0893251,0.3081757,-2.3448906,-1.0855747,2648.894889318206
-1.1124761,-0.004255176,0.00576973,-1.452818,2648.8964086144315
-1.0849257,-2.3448906,-1.3109548,-1.0767038,2648.8979279106566
-0.0043272977,-0.36933485,0.9139253,-0.0043994193,2648.899447206882
-0.87346506,1.4862825,-1.0907675,-0.004255176,2648.900966503107
-0.004255176,-0.94162,-1.4343549,-2.3448906,2648.9024857993327
-2.3448906,-1.1134858,-1.0775692,0.00576973,2648.904005095558
-0.3508717,-1.0818244,-0.0043994193,-1.7171439,2648.9055243917833
1.4862825,-0.0043272977,-0.004255176,1.153946,2648.907043688009
-1.9017031,-0.87339294,-2.3448906,-1.0894693,2648.9085629842343
-1.1140628,-0.004255176,0.001153946,-1.4158918,2648.9100822804594
-1.0865844,-2.3448906,-1.587902,-1.0777856,2648.911601576685
-0.0043272977,-0.16624035,1.1170198,-0.0043994193,2648.91312087291
-2.0549617,1.4862825,-1.0950948,-0.004255176,2648.9146401691355
-0.004255176,-1.6432192,-1.4158918,-2.3448906,2648.916159465361
-2.3448906,-1.1131252,-1.0772086,0.001153946,2648.917678761586
-0.2954823,-1.0841323,-0.0043994193,2.2155044,2648.9191980578116
1.4862825,-0.0043272977,-0.004255176,1.1354829,2648.920717354037
-1.1077882,-2.0548894,-2.3448906,-1.092859,2648.922236650262
-1.1148561,-0.004255176,0.015001299,-1.3974286,2648.9237559464877
-1.0894693,-2.3448906,-2.123333,-1.0793723,2648.925275242713
-0.0043272977,-1.200176,0.78468335,-0.0043994193,2648.9267945389383
1.4901049,1.4862825,-1.0918493,-0.004255176,2648.928313835164
-0.004255176,-1.8647768,-1.3789655,-2.3448906,2648.929833131389
-2.3448906,-1.1144234,-1.0773529,0.015001299,2648.9313524276145
-0.8309133,-1.0865844,-0.0043994193,-1.864849,2648.9328717238395
1.4862825,-0.0043272977,-0.004255176,1.1724092,2648.934391020065
-1.88324,1.490177,-2.3448906,-1.091633,2648.9359103162906
-1.1152889,-0.004255176,0.010385514,-1.3605024,2648.9374296125156
0.5769009,-2.3448906,-1.9017752,-1.0785068,2648.938948908741
0.0036060815,1.9017031,-2.0586398,-0.0043994193,2648.9404682049667
0.30860844,1.4862825,0.92683506,0.0036060815,2648.9419875011918
-0.004255176,-1.4401246,-1.3420392,-2.3632815,2648.9435067974173
-2.3448906,-1.1150725,-1.0772086,0.010385514,2648.9450260936424
1.7355349,0.933903,-0.0043994193,-1.329418,2648.946545389868
1.4862825,0.0036060815,0.0036060815,-1.2277986,2648.9480646860934
-1.5878298,0.30868056,-2.3632815,0.9276284,2648.9495839823185
-1.1138464,-0.004255176,0.00576973,-1.3235761,2648.951103278544
0.9360666,-2.3448906,-2.0864067,-1.0785068,2648.9526225747695
0.0036060815,1.5509036,-1.5232089,0.0020915272,2648.9541418709946
-0.8729602,1.4862825,0.9296478,0.0036060815,2648.95566116722
0.0036060815,-0.09231568,-1.305113,-2.3632815,2648.957180463445
-2.3632815,0.90678525,0.9385909,0.00576973,2648.9586997596707
1.7724612,0.9363551,0.0035339599,0.12924196,2648.9602190558962
1.4862825,0.0036060815,0.0036060815,-1.6709139,2648.9617383521213
-0.11077882,-0.8728881,-2.3632815,0.92914295,2648.963257648347
0.9085883,0.003678203,0.001153946,-1.2866498,2648.964776944572
0.93318176,-2.3632815,0.05538941,0.9420527,2648.9662962407974
0.0036060815,1.3662721,-1.9663241,0.0035339599,2648.967815537023
-2.0544567,1.4862825,0.9312345,0.0036060815,2648.969334833248
0.0036060815,-0.036926273,-1.2866498,-2.3632815,2648.9708541294735
-2.3632815,0.9051986,0.94378364,0.001153946,2648.972373425699
1.4585878,0.9365715,0.0034618382,-0.05538941,2648.973892721924
1.4862825,0.0036060815,0.0036060815,-1.9663241,2648.9754120181497
-0.12924196,-2.0543847,-2.3632815,0.92878234,2648.9769313143747
0.90606403,0.003678203,0.015001299,-1.2681867,2648.9784506106002
0.9323884,-2.3632815,0.5538941,0.93844664,2648.9799699068258
0.0036060815,1.6801455,-1.2277986,0.0035339599,2648.981489203051
1.4906098,1.4862825,0.9295757,0.0036060815,2648.9830084992764
0.003678203,0.0,-1.2497236,-2.3632815,2648.984527795502
-2.3632815,0.9065689,0.94111514,0.015001299,2648.986047091727
2.1786501,0.9356339,0.0034618382,-0.18463136,2648.9875663879525
1.4862825,0.0036060815,0.0036060815,-1.9293978,2648.9890856841776
0.07385255,1.4906819,-2.3632815,0.93008053,2648.990604980403
0.9041889,0.0036060815,0.010385514,-1.2312604,2648.9921242766286
0.9388794,-2.3632815,-0.51696783,0.9425576,2648.9936435728537
0.0036060815,1.7170718,-1.1908723,0.0034618382,2648.995162869079
0.3091133,1.4862825,0.92878234,0.0036060815,2648.9966821653043
0.003678203,0.24002078,-1.2127973,-2.3632815,2648.99820146153
-2.3632815,0.90512645,0.9432788,0.010385514,2648.9997207577553
1.8647768,0.9343357,0.0035339599,0.3507996,2649.0012400539804
1.4862825,0.0036060815,0.0036060815,-1.818619,2649.002759350206
0.2954102,0.30918542,-2.3632815,0.9258975,2649.0042786464314
0.90577555,0.0036060815,0.00576973,-1.1943341,2649.0057979426565
0.9376533,-2.3632815,-0.6462098,0.9419085,2649.007317238882
0.0036060815,1.9386294,-1.5232089,0.0035339599,2649.008836535107
-0.87245536,1.4862825,0.92813325,0.0036060815,2649.0103558313326
0.003678203,0.05538941,-1.175871,-2.3632815,2649.011875127558
-2.3632815,0.9069295,0.9402497,0.00576973,2649.013394423783
1.5878298,0.9336145,0.0035339599,0.4431153,2649.0149137200087
1.4862825,0.0036060815,0.0036060815,-1.1354829,2649.0164330162343
0.31387332,-0.87238324,-2.3632815,0.9302969,2649.0179523124593
0.90317917,0.0036060815,0.001153946,-1.1574079,2649.019471608685
0.9355618,-2.3632815,-0.09231568,0.93981695,2649.02099090491
0.0036060815,1.7724612,-1.5047457,0.0035339599,2649.0225102011354
-2.053952,1.4862825,0.927989,0.0036060815,2649.024029497361
0.003678203,0.12924196,-1.1574079,-2.3632815,2649.025548793586
-2.3632815,0.9043331,0.9430624,0.001153946,2649.0270680898116
2.2155764,0.9352733,0.0034618382,-0.05538941,2649.028587386037
1.4862825,0.0036060815,0.0036060815,-2.1140292,2649.030106682262
-0.24002078,-2.0538797,-2.3632815,0.9302248,2649.0316259784877
0.90440524,0.0036060815,0.015001299,-1.1389447,2649.0331452747128
0.9355618,-2.3632815,-1.1077882,0.93779755,2649.0346645709383
0.0036060815,-2.3448184,-1.4678193,0.0035339599,2649.036183867164
1.4911146,1.4862825,0.928566,0.0036060815,2649.037703163389
0.0036060815,-0.40618902,-1.1204816,-2.3632815,2649.0392224596144
-2.3632815,0.90483797,0.93909574,0.015001299,2649.0407417558395
2.1417239,0.9318836,0.0034618382,-0.6092835,2649.042261052065
1.4862825,0.0036060815,0.0036060815,-2.0217135,2649.0437803482905
-0.12924196,1.4911867,-2.3632815,0.9322442,2649.0452996445156
0.90613616,0.003678203,0.010385514,-1.1020185,2649.046818940741
0.9353454,-2.3632815,-0.11077882,0.94248545,2649.0483382369666
0.0036060815,1.218567,-1.5601351,0.0035339599,2649.0498575331917
0.30961815,1.4862825,0.93044114,0.0036060815,2649.051376829417
0.003678203,0.22155765,-1.0835553,-2.3632815,2649.0528961256423
-2.3632815,0.90577555,0.9393121,0.010385514,2649.054415421868
1.5324404,0.93512905,0.0035339599,0.46157843,2649.0559347180933
1.4862825,0.0036060815,0.0036060815,-1.6339877,2649.0574540143184
0.31387332,0.30969027,-2.3632815,0.928566,2649.058973310544
0.90606403,0.003678203,0.00576973,-1.0650922,2649.0604926067695
0.9360666,-2.3632815,0.25848392,0.9412594,2649.0620119029945
0.0036060815,0.94162,-1.6155245,0.0034618382,2649.06353119922
-0.8719505,1.4862825,0.9282775,0.0036060815,2649.065050495445
0.003678203,0.11077882,-1.0466291,-2.3632815,2649.0665697916706
-2.3632815,0.90649676,0.9436394,0.00576973,2649.068089087896
1.7170718,0.9349127,0.0035339599,0.33233646,2649.0696083841212
1.4862825,0.0036060815,0.0036060815,2.1694186,2649.0711276803468
0.6462098,-0.8718784,-2.3632815,0.9299363,2649.072646976572
0.90447736,0.003678203,0.001153946,-1.0281659,2649.0741662727974
0.93274903,-2.3632815,0.51696783,0.9406103,2649.075685569023
0.0036060815,1.5509036,-1.6893771,0.0035339599,2649.077204865248
-2.053447,1.4862825,0.92950356,0.0036060815,2649.0787241614735
0.0036060815,-0.40618902,-1.0281659,-2.3632815,2649.080243457699
-2.3632815,0.9062083,0.9414036,0.001153946,2649.081762753924
2.307892,0.9367157,0.0034618382,-0.75698864,2649.0832820501496
1.4862825,0.0036060815,0.0036060815,-2.0586398,2649.0848013463747
-0.51696783,-2.053375,-2.3632815,0.9270514,2649.0863206426
0.90577555,0.003678203,0.015001299,-1.0097028,2649.0878399388257
0.93541753,-2.3632815,0.09231568,0.9416921,2649.089359235051
0.0036060815,1.4401246,-1.6155245,0.0035339599,2649.0908785312763
1.4916195,1.4862825,0.9269072,0.0036060815,2649.092397827502
0.0036060815,-0.18463136,-0.99123967,-2.3632815,2649.093917123727
-2.3632815,0.90541494,0.9419806,0.015001299,2649.0954364199524
0.7015992,0.9359945,0.0034618382,-0.48004156,2649.0969557161775
1.4862825,0.0036060815,0.0036060815,-1.4308931,2649.098475012403
0.12924196,1.4916916,-2.3632815,0.92914295,2649.0999943086285
0.90447736,0.0036060815,0.010385514,-0.97277653,2649.1015136048536
0.93484056,-2.3632815,-0.3507996,0.9412594,2649.103032901079
0.0036060815,0.94162,-1.8001559,0.0035339599,2649.104552197304
0.310123,1.4862825,0.93051326,0.0036060815,2649.1060714935297
0.003678203,0.07385255,-0.9543134,-2.3632815,2649.1075907897552
-2.3632815,0.9078671,0.93981695,0.010385514,2649.1091100859803
2.1047976,0.93548965,0.0035339599,1.1447145,2649.110629382206
1.4862825,0.0036060815,0.0036060815,-1.3016511,2649.1121486784314
-0.05538941,0.31019512,-2.3632815,0.9259696,2649.1136679746564
0.9057034,0.003678203,0.00576973,-0.93585026,2649.115187270882
0.9322442,-2.3632815,0.24002078,0.94414425,2649.116706567107
0.0036060815,2.1232607,-1.8001559,0.0035339599,2649.1182258633326
-0.87144566,1.4862825,0.92878234,0.0036060815,2649.119745159558
0.0036060815,-0.36926273,-0.9173871,-2.3632815,2649.121264455783
-2.3632815,0.907218,0.9414036,0.00576973,2649.1227837520087
1.5324404,0.935706,0.0035339599,0.25848392,2649.124303048234
1.4862825,0.0036060815,0.0036060815,-1.2647249,2649.1258223444593
0.7015992,-0.87137353,-2.3632815,0.9302248,2649.127341640685
0.9015925,0.003678203,0.001153946,-0.898924,2649.12886093691
0.9346242,-2.3632815,0.11077882,0.9430624,2649.1303802331354
0.0036060815,1.6432192,-1.5047457,0.0035339599,2649.131899529361
-2.0529423,1.4862825,0.93008053,0.0036060815,2649.133418825586
0.0036060815,-0.6462098,-0.898924,-2.3632815,2649.1349381218115
-2.3632815,0.90173674,0.94082665,0.001153946,2649.1364574180366
1.5878298,0.9365715,0.0034618382,-0.05538941,2649.137976714262
1.4862825,0.0036060815,0.0036060815,-1.5601351,2649.1394960104876
-0.5538941,-2.05287,-2.3632815,0.92741203,2649.1410153067127
0.901881,0.0036060815,0.015001299,-0.88046086,2649.142534602938
0.93577814,-2.3632815,-0.018463137,0.94053817,2649.1440538991637
0.0036060815,1.7170718,-1.3201143,0.0035339599,2649.145573195389
1.4921243,1.4862825,0.92719567,0.0036060815,2649.1470924916143
0.003678203,0.24002078,-0.8619977,-2.3632815,2649.1486117878394
-2.3632815,0.90483797,0.94248545,0.015001299,2649.150131084065
1.8647768,0.93714845,0.0035339599,0.07385255,2649.1516503802904
1.4862825,0.0036060815,0.0036060815,-1.7078402,2649.1531696765155
0.1477051,1.4921964,-2.3632815,0.9289987,2649.154688972741
0.90584767,0.003678203,0.010385514,-0.8435346,2649.1562082689666
0.93678784,-2.3632815,-0.42465216,0.9419806,2649.1577275651916
0.0036060815,0.92315686,-1.8740084,0.0034618382,2649.159246861417
0.31062785,1.4862825,0.9326048,0.0036060815,2649.1607661576422
0.0036060815,-0.1477051,-0.82507145,-2.3632815,2649.1622854538678
-2.3632815,0.9062083,0.938663,0.010385514,2649.1638047500933
-2.3448184,0.9346963,0.0035339599,0.22155765,2649.1653240463183
1.4862825,0.0036060815,0.0036060815,-2.1140292,2649.166843342544
0.31387332,0.31069997,-2.3632815,0.93116236,2649.168362638769
0.90440524,0.0036060815,0.00576973,-0.8066083,2649.1698819349945
0.93440783,-2.3632815,0.5908204,0.94284606,2649.17140123122
0.0036060815,1.0339357,-1.5047457,0.0034618382,2649.172920527445
-0.8709408,1.4862825,0.9269072,0.0036060815,2649.1744398236706
0.003678203,0.48004156,-0.7881452,-2.3632815,2649.175959119896
-2.3632815,0.9075786,0.9403218,0.00576973,2649.177478416121
1.0708619,0.9355618,0.0035339599,0.36926273,2649.1789977123467
1.4862825,0.0036060815,0.0036060815,-1.2093354,2649.1805170085718
0.1477051,-0.8708687,-2.3632815,0.9302248,2649.1820363047973
0.907218,0.0036060815,0.001153946,-0.76968205,2649.183555601023
0.93419147,-2.3632815,-0.1477051,0.93981695,2649.185074897248
0.0036060815,1.9386294,-0.26771548,0.0035339599,2649.1865941934734
-2.0524373,1.4862825,0.9336866,0.0036060815,2649.188113489699
0.0036060815,-0.46157843,-0.76968205,-2.3632815,2649.189632785924
-2.3632815,0.90613616,0.94414425,0.001153946,2649.1911520821495
1.6247561,0.93548965,0.0035339599,0.07385255,2649.1926713783746
1.4862825,0.0036060815,0.0036060815,-1.7816927,2649.1941906746
-0.33233646,-2.0523653,-2.3632815,0.9296478,2649.1957099708256
0.90505433,0.0036060815,0.015001299,-0.7512189,2649.1972292670507
0.93440783,-2.3632815,0.18463136,0.94053817,2649.1987485632762
0.0036060815,-2.3448184,-1.2277986,0.0035339599,2649.2002678595013
1.4926292,1.4862825,0.92777264,0.0036060815,2649.201787155727
0.003678203,0.8308412,-0.7327557,-2.3632815,2649.2033064519524
-2.3632815,0.9069295,0.9408988,0.015001299,2649.2048257481774
1.6247561,0.93541753,0.0034618382,-0.6646729,2649.206345044403
1.4862825,0.0036060815,0.0036060815,-1.9847872,2649.2078643406285
-0.24002078,1.4927013,-2.3632815,0.9283496,2649.2093836368535
0.90317917,0.0036060815,0.010385514,-0.7142926,2649.210902933079
0.9350569,-2.3632815,-0.036926273,0.9427018,2649.212422229304
0.0036060815,1.7355349,-1.7263033,0.0035339599,2649.2139415255297
0.3111327,1.4862825,0.928566,0.0036060815,2649.215460821755
0.003678203,0.036926273,-0.69582945,-2.3632815,2649.2169801179803
-2.3632815,0.9073622,0.94212484,0.010385514,2649.218499414206
1.6986086,0.93786967,0.0034618382,-0.62774664,2649.2200187104313
1.4862825,0.0036060815,0.0036060815,-1.8370821,2649.2215380066564
0.036926273,0.31120482,-2.3632815,0.9256811,2649.223057302882
0.9068574,0.003678203,0.00576973,-0.6773663,2649.224576599107
0.9375812,-2.3632815,0.07385255,0.9382303,2649.2260958953325
0.0036060815,2.2525027,-1.8740084,0.0035339599,2649.227615191558
-0.87043595,1.4862825,0.93274903,0.0036060815,2649.229134487783
0.0036060815,-0.018463137,-0.6589032,-2.3632815,2649.2306537840086
-2.3632815,0.9039004,0.9409709,0.00576973,2649.2321730802337
1.7909243,0.9376533,0.0034618382,-0.27694705,2649.233692376459
1.4862825,0.0036060815,0.0036060815,-0.9139253,2649.2352116726847
0.27694705,-0.87036383,-2.3632815,0.92719567,2649.23673096891
0.9046216,0.0036060815,0.001153946,-0.64044005,2649.2382502651353
0.93678784,-2.3632815,-0.18463136,0.9403218,2649.239769561361
0.0036060815,1.8093874,-2.0217135,0.0035339599,2649.241288857586
-2.0519326,1.4862825,0.9289987,0.0036060815,2649.2428081538114
0.003678203,0.20309451,-0.64044005,-2.3632815,2649.2443274500365
-2.3632815,0.90577555,0.941043,0.001153946,2649.245846746262
1.218567,0.9356339,0.0034618382,-0.12924196,2649.2473660424876
1.4862825,0.0036060815,0.0036060815,-1.4493562,2649.2488853387126
-0.16616823,-2.0518603,-2.3632815,0.9282775,2649.250404634938
0.90642464,0.003678203,0.015001299,-0.6219769,2649.2519239311637
0.9360666,-2.3632815,-0.24002078,0.9427018,2649.2534432273887
0.0036060815,0.53543097,-1.5047457,0.0034618382,2649.2549625236143
1.493134,1.4862825,0.93044114,0.0036060815,2649.2564818198393
0.003678203,0.51696783,-0.6035138,-2.3632815,2649.258001116065
-2.3632815,0.90144825,0.941043,0.015001299,2649.2595204122904
1.5324404,0.93743694,0.0034618382,-0.12924196,2649.2610397085155
1.4862825,0.0036060815,0.0036060815,-1.6893771,2649.262559004741
-0.31387332,1.4932061,-2.3632815,0.9279169,2649.264078300966
0.901881,0.003678203,0.010385514,-0.58505064,2649.2655975971916
0.93707633,-2.3632815,0.4431153,0.9423412,2649.267116893417
0.0036060815,1.4031984,-1.3755037,0.0035339599,2649.268636189642
0.31163755,1.4862825,0.92885447,0.0036060815,2649.2701554858677
0.003678203,0.24002078,-0.5665875,-2.3632815,2649.271674782093
-2.3632815,0.9057034,0.9447212,0.010385514,2649.2731940783183
1.3662721,0.93649936,0.0034618382,-0.1477051,2649.274713374544
1.4862825,0.0036060815,0.0036060815,-1.541672,2649.276232670769
-0.09231568,0.31170967,-2.3632815,0.9289987,2649.2777519669944
0.90577555,0.003678203,0.00576973,-0.5481244,2649.27927126322
0.93585026,-2.3632815,0.20309451,0.9433509,2649.280790559445
0.0036060815,1.7170718,-1.0616304,0.0035339599,2649.2823098556705
-0.8699311,1.4862825,0.9273399,0.0036060815,2649.283829151896
0.003678203,0.46157843,-0.52966124,-2.3632815,2649.285348448121
-2.3632815,0.9062804,0.9442164,0.00576973,2649.2868677443466
1.5509036,0.9349848,0.0034618382,-0.24002078,2649.2883870405717
1.4862825,0.0036060815,0.0036060815,-1.0431672,2649.2899063367972
-0.05538941,-0.869859,-2.3632815,0.9266187,2649.2914256330228
0.90714586,0.0036060815,0.001153946,-0.5111981,2649.292944929248
0.9346963,-2.3632815,0.27694705,0.94010544,2649.2944642254733
0.0036060815,1.3662721,-1.0985566,0.0035339599,2649.2959835216984
-2.0514276,1.4862825,0.92683506,0.0036060815,2649.297502817924
0.0036060815,-0.25848392,-0.5111981,-2.3632815,2649.2990221141495
-2.3632815,0.9022416,0.9398891,0.001153946,2649.3005414103745
0.7939149,0.9346242,0.0034618382,-0.8308412,2649.3020607066
1.4862825,0.0036060815,0.0036060815,-2.243271,2649.3035800028256
0.4431153,-2.0513556,-2.3632815,0.92950356,2649.3050992990507
0.9041889,0.003678203,0.015001299,-0.49273497,2649.306618595276
0.93815815,-2.3632815,0.62774664,0.94414425,2649.3081378915012
0.0036060815,1.2554933,-1.1170198,0.0034618382,2649.3096571877268
1.4936389,1.4862825,0.9308739,0.0036060815,2649.3111764839523
0.003678203,0.22155765,-0.47427183,-2.3632815,2649.3126957801774
-2.3632815,0.9023137,0.94414425,0.015001299,2649.314215076403
2.160187,0.9350569,0.0034618382,-0.16616823,2649.3157343726284
1.4862825,0.0036060815,0.0036060815,-1.9663241,2649.3172536688535
-0.12924196,1.493711,-2.3632815,0.9299363,2649.318772965079
0.90772283,0.003678203,0.010385514,-0.4558087,2649.320292261304
0.9343357,-2.3632815,-0.2954102,0.94479334,2649.3218115575296
0.0036060815,0.9600831,-1.4124299,0.0035339599,2649.323330853755
0.3121424,1.4862825,0.9280611,0.0036060815,2649.32485014998
0.003678203,0.09231568,-0.43734556,-2.3632815,2649.3263694462057
-2.3632815,0.9055592,0.94212484,0.010385514,2649.327888742431
1.3662721,0.9363551,0.0034618382,-0.27694705,2649.3294080386563
1.4862825,0.0036060815,0.0036060815,-1.541672,2649.330927334882
-0.2954102,0.31221452,-2.3632815,0.9305854,2649.332446631107
0.9049101,0.003678203,0.00576973,-0.41888243,2649.3339659273324
0.93707633,-2.3632815,-0.18463136,0.9414036,2649.335485223558
0.0036060815,1.4031984,-1.8924716,0.0034618382,2649.337004519783
-0.86942625,1.4862825,0.92986417,0.0036060815,2649.3385238160085
0.0036060815,-0.36926273,-0.4004193,-2.3632815,2649.3400431122336
-2.3632815,0.9059919,0.94248545,0.00576973,2649.341562408459
1.4401246,0.93476844,0.0035339599,0.25848392,2649.3430817046847
1.4862825,0.0036060815,0.0036060815,-1.153946,2649.3446010009097
-0.40618902,-0.8693541,-2.3632815,0.9310181,2649.3461202971353
0.9036119,0.003678203,0.001153946,-0.38195616,2649.347639593361
0.93815815,-2.3632815,0.40618902,0.9430624,2649.349158889586
0.0036060815,1.7355349,-1.9293978,0.0034618382,2649.3506781858114
-2.0509229,1.4862825,0.9252484,0.0036060815,2649.3521974820364
0.0036060815,-0.018463137,-0.38195616,-2.3632815,2649.353716778262
-2.3632815,0.9036119,0.94147575,0.001153946,2649.3552360744875
1.2554933,0.93476844,0.0034618382,-0.48004156,2649.3567553707126
1.4862825,0.0036060815,0.0036060815,-0.78468335,2649.358274666938
-0.05538941,-2.0508506,-2.3632815,0.9287102,2649.359793963163
0.90505433,0.003678203,0.015001299,-0.363493,2649.3613132593887
0.9340472,-2.3632815,0.31387332,0.9430624,2649.362832555614
0.0036060815,2.289429,-1.947861,0.0034618382,2649.3643518518393
1.4941437,1.4862825,0.92907083,0.0036060815,2649.365871148065
0.0036060815,-0.33233646,-0.34502986,-2.3632815,2649.3673904442903
-2.3632815,0.90642464,0.94284606,0.015001299,2649.3689097405154
1.6801455,0.930369,0.0035339599,0.24002078,2649.370429036741
1.4862825,0.0036060815,0.0036060815,-2.0217135,2649.371948332966
-0.09231568,1.4942158,-2.3632815,0.93152297,2649.3734676291915
0.90541494,0.003678203,0.010385514,-0.32656673,2649.374986925417
0.93642724,-2.3632815,-0.27694705,0.938663,2649.376506221642
0.0036060815,0.9970094,-2.1509554,0.0035339599,2649.3780255178676
0.31264725,1.4862825,0.92842174,0.0036060815,2649.379544814093
0.0036060815,-0.40618902,-0.3081036,-2.3632815,2649.381064110318
-2.3632815,0.90411675,0.94147575,0.010385514,2649.3825834065437
1.9570925,0.93974483,0.0035339599,0.12924196,2649.384102702769
1.4862825,0.0036060815,0.0036060815,-0.6739045,2649.3856219989943
0.36926273,0.31271937,-2.3632815,0.9313787,2649.38714129522
0.90584767,0.003678203,0.00576973,-0.28964046,2649.388660591445
0.9353454,-2.3632815,0.5538941,0.944,2649.3901798876705
0.0036060815,0.81237805,-1.7078402,0.0035339599,2649.3916991838955
-0.8689214,1.4862825,0.93044114,0.0036060815,2649.393218480121
0.003678203,0.36926273,-0.27117732,-2.3632815,2649.3947377763466
-2.3632815,0.904261,0.9403218,0.00576973,2649.3962570725716
1.7724612,0.9342636,0.0035339599,0.42465216,2649.397776368797
1.4862825,0.0036060815,0.0036060815,-1.1354829,2649.3992956650227
-0.36926273,-0.8688493,-2.3632815,0.93008053,2649.4008149612478
0.9039004,0.003678203,0.001153946,-0.2527142,2649.4023342574733
0.933903,-2.3632815,-0.25848392,0.9423412,2649.4038535536984
0.0036060815,2.1786501,-1.9847872,0.0034618382,2649.405372849924
-2.050418,1.4862825,0.9302248,0.0036060815,2649.4068921461494
0.003678203,0.09231568,-0.2527142,-2.3632815,2649.4084114423745
-2.3632815,0.90584767,0.93916786,0.001153946,2649.4099307386
1.8647768,0.9383745,0.0035339599,0.27694705,2649.4114500348255
1.4862825,0.0036060815,0.0036060815,-1.541672,2649.4129693310506
-0.18463136,-2.050346,-2.3632815,0.930946,2649.414488627276
0.9062083,0.0036060815,0.015001299,-0.23425105,2649.416007923501
0.936283,-2.3632815,0.33233646,0.93974483,2649.4175272197267
0.0036060815,1.8278506,-1.5970614,0.0034618382,2649.4190465159522
1.4946486,1.4862825,0.92741203,0.0036060815,2649.4205658121773
0.0036060815,-0.33233646,-0.21578792,-2.3632815,2649.422085108403
-2.3632815,0.90606403,0.94212484,0.015001299,2649.423604404628
1.9017031,0.93541753,0.0035339599,0.7015992,2649.4251237008534
1.4862825,0.0036060815,0.0036060815,-1.6524508,2649.426642997079
-0.73852545,1.4947207,-2.3632815,0.92784476,2649.428162293304
0.9049822,0.003678203,0.010385514,-0.19732478,2649.4296815895295
0.9349848,-2.3632815,-0.05538941,0.9432788,2649.431200885755
0.0036060815,2.289429,-1.8740084,0.0035339599,2649.43272018198
0.3131521,1.4862825,0.9305854,0.0036060815,2649.4342394782057
0.003678203,0.05538941,-0.17886163,-2.3632815,2649.4357587744307
-2.3632815,0.904261,0.9388794,0.010385514,2649.4372780706562
1.9755557,0.9346242,0.0035339599,0.4431153,2649.4387973668818
1.4862825,0.0036060815,0.0036060815,2.1140292,2649.440316663107
-0.11077882,0.31322423,-2.3632815,0.9269072,2649.4418359593324
0.9030349,0.0036060815,0.00576973,-0.1603985,2649.443355255558
0.93808603,-2.3632815,0.42465216,0.9388794,2649.444874551783
0.0036060815,-2.307892,-1.9109347,0.0034618382,2649.4463938480085
-0.86841655,1.4862825,0.92986417,0.0036060815,2649.4479131442336
0.0036060815,-0.31387332,-0.14193536,-2.3448906,2649.449432440459
-2.3632815,0.9025301,0.9433509,0.00576973,2649.4509517366846
-1.1447866,-1.085719,0.0035339599,0.42465216,2649.4524710329097
1.4862825,-0.0043272977,-0.004255176,1.4862825,2649.453990329135
0.09231568,-0.8683444,-2.3448906,-1.0931475,2649.4555096253607
0.9029628,0.003678203,0.001153946,-0.12347223,2649.457028921586
-1.0844929,-2.3632815,0.20309451,0.9440721,2649.4585482178113
-0.0043272977,-0.20316663,1.153946,0.0035339599,2649.4600675140364
-2.0499132,1.4862825,-1.093436,-0.004255176,2649.461586810262
0.0036060815,-0.27694705,-0.12347223,-2.3448906,2649.4631061064874
-2.3632815,0.9043331,0.9419085,0.001153946,2649.4646254027125
-0.22162977,-1.0824735,0.0035339599,0.036926273,2649.466144698938
1.4862825,-0.0043272977,-0.004255176,1.8001559,2649.467663995163
-0.018463137,-2.049841,-2.3448906,-1.0906954,2649.4691832913886
-1.1144234,-0.004255176,0.015001299,-0.105009094,2649.470702587614
-1.0867287,-2.3448906,-1.2186391,-1.0752614,2649.472221883839
-0.0043272977,-0.7016713,1.3016511,-0.0043994193,2649.4737411800647
1.4951534,1.4862825,-1.0927148,-0.004255176,2649.4752604762903
-0.004255176,-1.9386294,-0.08654595,-2.3448906,2649.4767797725153
-2.3448906,-1.1165149,-1.076848,0.015001299,2649.478299068741
-0.72013444,-1.084565,-0.0043994193,-1.2555654,2649.479818364966
1.4862825,-0.0043272977,-0.004255176,1.0800935,2649.4813376611914
-1.5693667,1.4952255,-2.3448906,-1.0917051,2649.482856957417
-1.1141349,-0.004255176,0.010385514,-0.06808282,2649.484376253642
-1.0835553,-2.3448906,-1.9017752,-1.0769923,2649.4858955498676
-0.004255176,0.22148553,1.4678193,-0.0043994193,2649.487414846093
0.31365696,1.4862825,-1.0898299,-0.004255176,2649.488934142318
-0.004255176,-2.2340395,-0.049619682,-2.3448906,2649.4904534385437
-2.3448906,-1.1121155,-1.0747565,0.010385514,2649.4919727347688
-0.7016713,-1.0860796,-0.0043994193,-1.3109548,2649.4934920309943
1.4862825,-0.0043272977,-0.004255176,1.2647249,2649.49501132722
-1.4770509,0.31372908,-2.3448906,-1.0900463,2649.496530623445
-1.11363,-0.004255176,0.00576973,-0.031156544,2649.4980499196704
-1.0855026,-2.3448906,-1.3478811,-1.0779299,2649.4995692158955
-0.0043272977,-0.387798,1.2093354,-0.0043994193,2649.501088512121
-0.8679117,1.4862825,-1.0896857,-0.004255176,2649.5026078083465
-0.004255176,-2.0494082,-0.012693407,-2.3448906,2649.5041271045716
-2.3448906,-1.1098797,-1.0836275,0.00576973,2649.505646400797
-0.8678396,-1.0834111,-0.0043994193,-1.6248282,2649.5071656970226
1.4862825,-0.0043272977,-0.004255176,1.5232089,2649.5086849932477
-1.88324,-0.8678396,-2.3448906,-1.0914166,2649.510204289473
-1.1139907,-0.004255176,0.001153946,0.0058418517,2649.5117235856983
-1.0838438,-2.3448906,-2.123333,-1.0760547,2649.513242881924
-0.0043272977,-0.25855604,0.8031465,-0.0043994193,2649.5147621781493
-2.0678713,1.5047457,-1.0932918,-0.004255176,2649.5162814743744
-0.004255176,2.3263552,0.0058418517,-2.3448906,2649.5178007706
-2.3448906,-1.112404,-1.0803099,0.001153946,2649.5193200668255
-0.20316663,-1.0866566,-0.0043994193,-1.7171439,2649.5208393630505
1.5047457,-0.0043272977,-0.004255176,0.50773627,2649.522358659276
-1.7170718,-2.0677993,-2.3448906,-1.0932196,2649.523877955501
-1.1135579,-0.004255176,0.015001299,0.02430499,2649.5253972517266
-1.0841323,-2.3448906,-1.7171439,-1.0790838,2649.526916547952
-0.0043272977,-0.5908925,1.3385774,-0.0043994193,2649.5284358441772
1.4771951,1.5047457,-1.0917051,-0.004255176,2649.5299551404028
-0.004255176,-1.5878298,0.042768124,-2.3448906,2649.531474436628
-2.3448906,-1.114784,-1.0777856,0.015001299,2649.5329937328534
-0.07392467,-1.0873778,-0.0043994193,-1.735607,2649.534513029079
1.5047457,-0.0043272977,-0.004255176,1.4124299,2649.536032325304
-1.9570925,1.4772673,-2.3448906,-1.0919214,2649.5375516215295
-1.1147119,-0.004255176,0.010385514,0.061231263,2649.539070917755
-1.0842766,-2.3448906,-1.735607,-1.0787953,2649.54059021398
-0.0043272977,-0.8678396,1.4493562,-0.0043994193,2649.5421095102056
0.29569867,1.5047457,-1.0914887,-0.004255176,2649.5436288064307
-0.004255176,-2.1417239,0.0796944,-2.3448906,2649.545148102656
-2.3448906,-1.114784,-1.0776414,0.010385514,2649.5466673988817
-0.20316663,-1.0838438,-0.0043994193,-1.3478811,2649.548186695107
1.5047457,-0.0043272977,-0.004255176,0.876999,2649.5497059913323
-1.1816407,0.2957708,-2.3448906,-1.0927869,2649.551225287558
-1.1132694,-0.004255176,0.00576973,0.09815754,2649.552744583783
-1.0844929,-2.3448906,-0.9970815,-1.079805,2649.5542638800084
-0.0043272977,-1.1447866,1.0985566,-0.0043994193,2649.5557831762335
-0.88587,1.5047457,-1.089253,-0.004255176,2649.557302472459
-0.004255176,2.2340395,0.116620675,-2.3448906,2649.5588217686845
-2.3448906,-1.1133416,-1.0795887,0.00576973,2649.5603410649096
-0.42472428,-1.086945,-0.0043994193,-1.9387015,2649.561860361135
1.5047457,-0.0043272977,-0.004255176,0.9877778,2649.56337965736
-1.9570925,-0.88579786,-2.3448906,-1.0893251,2649.5648989535857
-1.1145676,-0.004255176,0.001153946,0.13508381,2649.5664182498112
-1.0868729,-2.3448906,-1.1632497,-1.0764874,2649.5679375460363
-0.0043272977,-0.12931408,1.5785983,-0.0043994193,2649.569456842262
-2.0673666,1.5047457,-1.0922099,-0.004255176,2649.5709761384874
-0.004255176,-1.347809,0.13508381,-2.3448906,2649.5724954347124
-2.3448906,-1.1131252,-1.0777856,0.001153946,2649.574014730938
-0.16624035,-1.0880269,-0.0043994193,-1.6802176,2649.575534027163
1.5047457,-0.0043272977,-0.004255176,0.4154206,2649.5770533233886
-1.3662721,-2.0672944,-2.3448906,-1.0908396,2649.578572619614
-1.1150725,-0.004255176,0.015001299,0.15354694,2649.580091915839
-1.0835553,-2.3448906,-2.2341118,-1.0773529,2649.5816112120647
-0.0043272977,-0.20316663,1.006241,-0.0043994193,2649.58313050829
1.4777,1.5047457,-1.0906233,-0.004255176,2649.5846498045153
-0.004255176,-1.8093874,0.17201008,-2.3448906,2649.586169100741
-2.3448906,-1.1150725,-1.0782183,0.015001299,2649.587688396966
-0.72013444,-1.0835553,-0.0043994193,-0.9416921,2649.5892076931914
1.5047457,-0.0043272977,-0.004255176,0.71083075,2649.590726989417
-1.5139773,1.4777721,-2.3448906,-1.0927869,2649.592246285642
-1.1126925,-0.004255176,0.010385514,0.19047323,2649.5937655818675
-1.0829062,-2.3448906,-1.5694388,-1.0753335,2649.5952848780926
-0.004255176,0.073780425,1.7447665,-0.0043994193,2649.596804174318
0.29620352,1.5047457,-1.0878826,-0.004255176,2649.5983234705436
-0.004255176,-1.6801455,0.20893636,-2.3448906,2649.5998427667687
-2.3448906,-1.1152167,-1.077425,0.010385514,2649.601362062994
-1.0340078,-1.0861517,-0.0043994193,-1.5325125,2649.6028813592197
1.5047457,-0.0043272977,-0.004255176,0.71083075,2649.604400655445
-1.8647768,0.29627565,-2.3448906,-1.0909839,2649.6059199516703
-1.114207,-0.004255176,0.00576973,0.2273995,2649.6074392478954
-1.0855747,-2.3448906,-1.2740285,-1.0755498,2649.608958544121
-0.0043272977,-0.18470348,1.7632296,-0.0043994193,2649.6104778403464
-0.8853651,1.5047457,-1.0917051,-0.004255176,2649.6119971365715
-0.004255176,-1.5139773,0.24586263,-2.3448906,2649.613516432797
-2.3448906,-1.114207,-1.079228,0.00576973,2649.6150357290226
0.03685415,-1.085142,-0.0043994193,-2.2895012,2649.6165550252476
1.5047457,-0.004255176,-0.004255176,1.4862825,2649.618074321473
-1.6247561,-0.885293,-2.3448906,-1.0907675,2649.6195936176982
-1.1169477,-0.004255176,0.001153946,0.26432577,2649.6211129139238
-1.0844208,-2.3448906,-1.5325125,-1.079228,2649.6226322101493
-0.0043272977,-0.2954823,0.4154206,-0.0043994193,2649.6241515063743
-2.0668616,1.5047457,-1.0914887,-0.004255176,2649.6256708026
-0.004255176,-1.5324404,0.26432577,-2.3448906,2649.627190098825
-2.3448906,-1.1139907,-1.0801656,0.001153946,2649.6287093950505
-0.84937644,-1.0844208,-0.0043994193,2.3447464,2649.630228691276
1.5047457,-0.0043272977,-0.004255176,1.8370821,2649.631747987501
-2.3632815,-2.0667896,-2.3448906,-1.0889645,2649.6332672837266
-1.1131252,-0.004255176,0.015001299,0.2827889,2649.634786579952
-1.0878826,-2.3448906,-1.9387015,-1.0775692,2649.636305876177
-0.0043272977,-0.8678396,0.9877778,-0.0043994193,2649.6378251724027
1.4782048,1.5047457,-1.0942293,-0.004255176,2649.6393444686278
-0.004255176,-1.8278506,0.30125204,-2.3448906,2649.6408637648533
-2.3448906,-1.1145676,-1.0777135,0.015001299,2649.642383061079
-0.90476584,-1.0834111,-0.0043994193,-1.6248282,2649.643902357304
1.5047457,-0.0043272977,-0.004255176,1.1908723,2649.6454216535294
-1.7355349,1.478277,-2.3448906,-1.0922099,2649.646940949755
-1.115938,-0.004255176,0.010385514,0.31971517,2649.64846024598
-1.0847814,-2.3448906,-1.587902,-1.0763432,2649.6499795422055
-0.0043272977,-0.3508717,1.1724092,-0.0043994193,2649.6514988384306
0.29670838,1.5047457,-1.0902627,-0.004255176,2649.653018134656
-0.004255176,-1.3293458,0.3381783,-2.3448906,2649.6545374308816
-2.3448906,-1.1121876,-1.0769923,0.010385514,2649.6560567271067
-0.33240858,-1.083916,-0.0043994193,-1.9202384,2649.6575760233322
1.5047457,-0.004255176,-0.004255176,1.4493562,2649.6590953195573
-2.0494082,0.2967805,-2.3448906,-1.0907675,2649.660614615783
-1.1137022,-0.004255176,0.00576973,0.35664144,2649.6621339120084
-1.0834111,-2.3448906,-1.9017752,-1.0777856,2649.6636532082334
-0.0043272977,-0.387798,0.78468335,-0.0043994193,2649.665172504459
-0.8848603,1.5047457,-1.0913445,-0.004255176,2649.6666918006845
-0.004255176,-2.2155764,0.3751046,-2.3448906,2649.6682110969095
-2.3448906,-1.1152889,-1.0759104,0.00576973,2649.669730393135
-0.68320817,-1.0883154,-0.0043994193,-1.5694388,2649.67124968936
1.5047457,-0.0043272977,-0.004255176,0.9323884,2649.6727689855857
-1.8093874,-0.88478816,-2.3448906,-1.093436,2649.674288281811
-1.1130531,-0.004255176,0.001153946,0.39356774,2649.6758075780363
-1.0839881,-2.3448906,-2.2156487,-1.0779299,2649.677326874262
-0.004255176,0.09224356,1.947861,-0.0043994193,2649.6788461704873
-2.066357,1.5047457,-1.089253,-0.004255176,2649.6803654667124
-0.004255176,-1.495514,0.39356774,-2.3448906,2649.681884762938
-2.3448906,-1.1144955,-1.0790117,0.001153946,2649.683404059163
0.22148553,-1.0893251,-0.0043994193,-1.7540702,2649.6849233553885
1.5047457,-0.0043272977,-0.004255176,1.0985566,2649.686442651614
-1.2739564,-2.0662847,-2.3448906,-1.089902,2649.687961947839
-1.1137743,-0.004255176,0.015001299,0.41203088,2649.6894812440646
-1.0831947,-2.3448906,-1.8463858,-1.0787953,2649.6910005402897
-0.0043272977,-0.33240858,0.9693147,-0.0043994193,2649.692519836515
1.4787097,1.5047457,-1.0927869,-0.004255176,2649.6940391327407
-0.004255176,-2.1417239,0.430494,-2.3448906,2649.695558428966
-2.3448906,-1.1129088,-1.0771365,0.015001299,2649.6970777251913
-0.2400929,-1.082762,-0.0043994193,-2.0679436,2649.698597021417
1.5047457,-0.0043272977,-0.004255176,0.6739045,2649.700116317642
-1.1262513,1.4787818,-2.3448906,-1.0893251,2649.7016356138674
-1.1144234,-0.004255176,0.010385514,0.44895715,2649.7031549100925
-1.086945,-2.3448906,-0.9416921,-1.0784347,2649.704674206318
-0.0043272977,-0.5355031,0.65544134,-0.0043994193,2649.7061935025436
0.29721323,1.5047457,-1.0884596,-0.004255176,2649.7077127987686
-0.004255176,-2.0678713,0.46742028,-2.3448906,2649.709232094994
-2.3448906,-1.1155773,-1.0788674,0.010385514,2649.7107513912197
0.05531729,-1.0864402,-0.0043994193,-1.6248282,2649.7122706874447
1.5047457,-0.0043272977,-0.004255176,0.9693147,2649.7137899836703
-1.9755557,0.29728535,-2.3448906,-1.0885317,2649.7153092798953
-1.1150725,-0.004255176,0.00576973,0.4858834,2649.716828576121
-1.0808868,-2.3448906,-1.3109548,-1.0784347,2649.7183478723464
-0.0043272977,-0.07392467,1.1170198,-0.0043994193,2649.7198671685715
-0.8843554,1.5047457,-1.0913445,-0.004255176,2649.721386464797
-0.004255176,-2.2340395,0.50434655,-2.3448906,2649.722905761022
-2.3448906,-1.1121155,-1.0777135,0.00576973,2649.7244250572476
-0.57242936,-1.0848535,-0.0043994193,-1.4401968,2649.725944353473
1.5047457,-0.0043272977,-0.004255176,1.283188,2649.727463649698
-1.2924196,-0.8842833,-2.3448906,-1.093436,2649.7289829459237
-1.1138464,-0.004255176,0.001153946,0.5228097,2649.730502242149
-1.0852863,-2.3448906,-1.7171439,-1.0797329,2649.7320215383743
-0.0043272977,-0.36933485,1.3385774,-0.0043994193,2649.7335408346
-2.065852,1.5047457,-1.090479,-0.004255176,2649.735060130825
-0.004255176,-1.7170718,0.5228097,-2.3448906,2649.7365794270504
-2.3448906,-1.1124761,-1.0782905,0.001153946,2649.738098723276
-0.7016713,-1.0837717,-0.0043994193,-1.8833121,2649.739618019501
1.5047457,-0.0043272977,-0.004255176,0.747757,2649.7411373157265
-2.3632815,-2.06578,-2.3448906,-1.0914887,2649.742656611952
-1.1138464,-0.004255176,0.015001299,0.5412728,2649.744175908177
-1.0842766,-2.3448906,-0.57242936,-1.0793002,2649.7456952044026
-0.0043272977,-0.12931408,1.2647249,-0.0043994193,2649.7472145006277
1.4792145,1.5047457,-1.0917051,-0.004255176,2649.7487337968532
-0.004255176,-1.9017031,0.55973595,-2.3448906,2649.7502530930788
-2.3448906,-1.1170919,-1.0769202,0.015001299,2649.751772389304
-0.5355031,-1.0853584,-0.0043994193,-1.5694388,2649.7532916855293
1.5047457,-0.004255176,-0.004255176,1.006241,2649.7548109817544
-1.753998,1.4792867,-2.3448906,-1.0922099,2649.75633027798
-1.1170919,-0.004255176,0.010385514,0.5781991,2649.7578495742055
-1.0860796,-2.3448906,-1.7725333,-1.0763432,2649.7593688704305
-0.004255176,0.33226433,1.0431672,-0.0043994193,2649.760888166656
0.29771808,1.5047457,-1.0901905,-0.004255176,2649.7624074628816
-0.004255176,-1.4770509,0.5966622,-2.3448906,2649.7639267591067
-2.3448906,-1.1152167,-1.0767759,0.010385514,2649.765446055332
-0.110850945,-1.0858632,-0.0043994193,-1.864849,2649.7669653515572
1.5047457,-0.0043272977,-0.004255176,1.006241,2649.7684846477828
-2.2155764,0.2977902,-2.3448906,-1.0917051,2649.7700039440083
-1.1129088,-0.004255176,0.00576973,0.61512536,2649.7715232402334
-1.0811753,-2.3448906,-1.5694388,-1.076848,2649.773042536459
-0.004255176,0.38765377,0.5261994,-0.0043994193,2649.7745618326844
-0.8838506,1.5047457,-1.0926427,-0.004255176,2649.7760811289095
-0.004255176,-1.4585878,0.6335885,-2.3448906,2649.777600425135
-2.3448906,-1.1148561,-1.0798771,0.00576973,2649.77911972136
-0.49857682,-1.0844208,-0.0043994193,-1.5694388,2649.7806390175856
1.5047457,-0.0043272977,-0.004255176,0.89546216,2649.782158313811
-1.88324,-0.88377845,-2.3448906,-1.0901184,2649.783677610036
-1.1146398,-0.004255176,0.001153946,0.6520516,2649.7851969062617
-1.082762,-2.3448906,-2.0125542,-1.0738189,2649.786716202487
-0.0043272977,-0.79398704,1.0800935,-0.0043994193,2649.7882354987123
-2.0653472,1.5047457,-1.0923542,-0.004255176,2649.789754794938
-0.004255176,-1.6801455,0.6520516,-2.3448906,2649.791274091163
-2.3448906,-1.1138464,-1.0772086,0.001153946,2649.7927933873884
-0.31394544,-1.0856469,-0.0043994193,-1.587902,2649.794312683614
1.5047457,-0.0043272977,-0.004255176,1.4308931,2649.795831979839
-1.9386294,-2.065275,-2.3448906,-1.089902,2649.7973512760645
-1.1138464,-0.004255176,0.015001299,0.67051476,2649.7988705722896
-1.083339,-2.3448906,-1.4586599,-1.0787953,2649.800389868515
-0.0043272977,-0.75706077,1.3570405,-0.0043994193,2649.8019091647407
1.4797194,1.5047457,-1.0912724,-0.004255176,2649.8034284609657
-0.004255176,-1.347809,0.6889779,-2.3448906,2649.8049477571913
-2.3448906,-1.1129088,-1.0780741,0.015001299,2649.806467053417
-0.22162977,-1.0859354,-0.0043994193,-1.0340078,2649.807986349642
1.5047457,-0.0043272977,-0.004255176,1.153946,2649.8095056458674
2.2525027,1.4797915,-2.3448906,-1.0876663,2649.8110249420924
-1.1164428,-0.004255176,0.010385514,0.70744103,2649.812544238318
-1.0844929,-2.3448906,-1.4955862,-1.077425,2649.8140635345435
-0.004255176,0.018391015,1.2462617,-0.0043994193,2649.8155828307686
0.29822293,1.5047457,-1.0918493,-0.004255176,2649.817102126994
-0.004255176,-1.6247561,0.72590417,-2.3448906,2649.818621423219
-2.3448906,-1.1143513,-1.0824735,0.010385514,2649.8201407194447
-0.62781876,-1.0855747,-0.0043994193,-2.0125542,2649.82166001567
1.5047457,-0.004255176,-0.004255176,1.6339877,2649.8231793118953
-1.5139773,0.29829505,-2.3448906,-1.0908396,2649.824698608121
-1.114207,-0.004255176,0.00576973,0.7443673,2649.8262179043463
-1.0830505,-2.3448906,-1.6986808,-1.0772808,2649.8277372005714
-0.0043272977,-0.49857682,0.9323884,-0.0043994193,2649.829256496797
-0.8833457,1.5047457,-1.0922099,-0.004255176,2649.830775793022
-0.004255176,-1.9017031,0.7628305,-2.3448906,2649.8322950892475
-2.3448906,-1.1124761,-1.0772808,0.00576973,2649.833814385473
-0.8678396,-1.0853584,-0.0043994193,-1.9571646,2649.835333681698
1.5047457,-0.0043272977,-0.004255176,1.3016511,2649.8368529779236
2.3448184,-0.8832736,-2.3448906,-1.0908396,2649.838372274149
-1.1138464,-0.004255176,0.001153946,0.78129363,2649.839891570374
-1.083916,-2.3448906,-1.2186391,-1.0782905,2649.8414108665997
-0.0043272977,-0.5539662,1.0247041,-0.0043994193,2649.842930162825
-2.0648422,1.5047457,-1.0907675,-0.004255176,2649.8444494590503
-0.004255176,-2.1047976,0.78129363,-2.3448906,2649.845968755276
-2.3448906,-1.1111779,-1.0761989,0.001153946,2649.847488051501
-0.75706077,-1.087522,-0.0043994193,-2.0494804,2649.8490073477265
1.5047457,-0.0043272977,-0.004255176,1.0247041,2649.8505266439515
-1.3108827,-2.0647702,-2.3448906,-1.0906233,2649.852045940177
-1.1169477,-0.004255176,0.015001299,0.79975677,2649.8535652364026
-1.086296,-2.3448906,-0.96015525,-1.0764874,2649.8550845326276
-0.004255176,0.53535885,1.6893771,-0.0043994193,2649.856603828853
1.4802243,1.5047457,-1.0919936,-0.004255176,2649.8581231250787
-0.004255176,1.9755557,0.8182199,-2.3448906,2649.8596424213038
-2.3448906,-1.1133416,-1.0761268,0.015001299,2649.8611617175293
0.05531729,-1.0840602,-0.0043994193,-1.587902,2649.8626810137544
1.5047457,-0.0043272977,-0.004255176,1.0247041,2649.86420030998
-1.1447145,1.4802964,-2.3448906,-1.0884596,2649.8657196062054
-1.111827,-0.004255176,0.010385514,0.83668303,2649.8672389024305
-1.0822572,-2.3448906,-1.9571646,-1.0787953,2649.868758198656
-0.0043272977,-0.4801137,1.7078402,-0.0043994193,2649.8702774948815
0.29872778,1.5047457,-1.0918493,-0.004255176,2649.8717967911066
-0.004255176,-1.6432192,0.85514617,-2.3448906,2649.873316087332
-2.3448906,-1.1123319,-1.0760547,0.010385514,2649.874835383557
-0.4801137,-1.085142,-0.0043994193,-1.3663442,2649.8763546797827
1.5047457,-0.004255176,-0.004255176,2.095566,2649.8778739760082
-1.2739564,0.2987999,-2.3448906,-1.0909117,2649.8793932722333
-1.1140628,-0.004255176,0.00576973,0.8736093,2649.880912568459
-1.0842766,-2.3448906,-1.9756278,-1.0757662,2649.882431864684
-0.0043272977,-0.5539662,0.747757,-0.0043994193,2649.8839511609094
-0.8828409,1.5047457,-1.0905511,-0.004255176,2649.885470457135
-0.004255176,-1.9755557,0.89207244,-2.3448906,2649.88698975336
-2.3448906,-1.1154331,-1.0799493,0.00576973,2649.8885090495855
-0.7385976,-1.086296,-0.0043994193,-1.4955862,2649.890028345811
1.5047457,-0.0043272977,-0.004255176,0.56312567,2649.891547642036
-1.5509036,-0.88276875,-2.3448906,-1.0893251,2649.8930669382617
-1.1157937,-0.004255176,0.001153946,0.9105356,2649.8945862344867
-1.085719,-2.3448906,-1.4401968,-1.076848,2649.8961055307122
-0.0043272977,-1.0893972,-0.23078921,-0.0043994193,2649.8976248269378
-2.0643375,1.5047457,-1.0927148,-0.004255176,2649.899144123163
-0.004255176,-2.2155764,0.9105356,-2.3448906,2649.9006634193884
-2.3448906,-1.1129088,-1.0781462,0.001153946,2649.902182715614
-0.07392467,-1.0840602,-0.0043994193,-1.3109548,2649.903702011839
1.5047457,-0.0043272977,-0.004255176,1.3385774,2649.9052213080645
-1.3662721,-2.0642653,-2.3448906,-1.0901905,2649.9067406042896
-1.1124761,-0.004255176,0.015001299,0.9289987,2649.908259900515
-1.0858632,-2.3448906,-2.0864067,-1.0787232,2649.9097791967406
-0.0043272977,-0.31394544,0.876999,-0.0043994193,2649.9112984929657
1.4807291,1.5047457,-1.091056,-0.004255176,2649.912817789191
-0.004255176,-1.8093874,0.94746184,-2.3448906,2649.9143370854167
-2.3448906,-1.1151446,-1.078002,0.015001299,2649.915856381642
0.018391015,-1.083339,-0.0043994193,-1.8463858,2649.9173756778673
1.5047457,-0.0043272977,-0.004255176,0.9693147,2649.9188949740924
-2.2525027,1.4808012,-2.3448906,-1.0905511,2649.920414270318
-1.1154331,-0.004255176,0.010385514,0.965925,2649.9219335665434
-1.0878105,-2.3448906,-2.0494804,-1.0758383,2649.9234528627685
-0.004255176,0.49843258,1.3016511,-0.0043994193,2649.924972158994
0.29923263,1.5047457,-1.0922099,-0.004255176,2649.926491455219
-0.004255176,-1.4216615,0.9843881,-2.3448906,2649.9280107514446
-2.3448906,-1.1139907,-1.078002,0.010385514,2649.92953004767
0.05531729,-1.087522,-0.0043994193,-1.5140494,2649.931049343895
1.5047457,-0.0043272977,-0.0043272977,-0.26771548,2649.9325686401207
-1.5509036,0.29930475,-2.3448906,-1.09459,2649.9340879363463
-1.1126925,-0.004255176,0.00576973,1.0028512,2649.9356072325713
-1.085142,-2.3448906,-1.6063651,-1.0761268,2649.937126528797
-0.0043272977,-0.27701917,0.84007275,-0.0043994193,2649.938645825022
-0.882336,1.5047457,-1.091633,-0.004255176,2649.9401651212474
-0.004255176,-2.012482,1.0213144,-2.3448906,2649.941684417473
-2.3448906,-1.1133416,-1.075045,0.00576973,2649.943203713698
-0.387798,-1.0846372,-0.0043994193,-1.587902,2649.9447230099236
1.5047457,-0.004255176,-0.004255176,0.9323884,2649.946242306149
-0.6462098,-0.8822639,-2.3448906,-1.0909117,2649.947761602374
-1.1178852,-0.004255176,0.001153946,1.0397775,2649.9492808985997
-1.0855747,-2.3448906,-1.9940909,-1.0786511,2649.9508001948248
-0.0043272977,-0.46165055,0.6739045,-0.0043994193,2649.9523194910503
-2.0638325,1.5047457,-1.091633,-0.004255176,2649.953838787276
-0.004255176,-1.7170718,1.0397775,-2.3448906,2649.955358083501
-2.3448906,-1.11363,-1.077425,0.001153946,2649.9568773797264
-0.57242936,-1.0855026,-0.0043994193,-1.9940909,2649.9583966759515
1.5047457,-0.004255176,-0.004255176,0.78468335,2649.959915972177
-1.0893251,-2.0637605,-2.3632815,0.5682463,2649.9614352684025
-1.1138464,-0.004255176,0.015001299,1.0582407,2649.9629545646276
0.93714845,-2.3448906,-1.4032705,-1.0778577,2649.964473860853
0.0036060815,1.3662721,-1.0247041,-0.0043994193,2649.9659931570786
1.481234,1.5047457,0.9316672,0.0036060815,2649.9675124533037
-0.004255176,-2.289429,1.0767038,-2.3632815,2649.969031749529
-2.3448906,-1.114207,-1.0764874,0.015001299,2649.9705510457543
2.0678713,0.9363551,-0.0043994193,-1.5694388,2649.97207034198
1.5047457,0.0036060815,0.0036060815,-1.7078402,2649.9735896382053
-1.5693667,1.4813061,-2.3632815,0.93109024,2649.9751089344304
-1.1120434,-0.004255176,0.010385514,1.0951669,2649.976628230656
0.93642724,-2.3448906,-1.5694388,-1.0770644,2649.9781475268815
0.0036060815,1.5509036,-1.4678193,-0.0031733518,2649.9796668231065
0.29973748,1.5047457,0.9305854,0.0036060815,2649.981186119332
0.003678203,0.05538941,1.11363,-2.3632815,2649.982705415557
-2.3632815,0.9049822,0.9409709,0.010385514,2649.9842247117826
2.012482,0.9318836,0.0035339599,0.33233646,2649.985744008008
1.5047457,0.0036060815,0.0036060815,-1.4493562,2649.9872633042332
-0.05538941,0.2998096,-2.3632815,0.92986417,2649.9887826004588
0.90707374,0.003678203,0.00576973,1.1320932,2649.990301896684
0.93520117,-2.3632815,0.22155765,0.93750906,2649.9918211929094
0.0036060815,2.307892,-1.1170198,0.0035339599,2649.993340489135
-0.88183117,1.5047457,0.9300084,0.0036060815,2649.99485978536
0.0036060815,-0.036926273,1.1505563,-2.3632815,2649.9963790815855
-2.3632815,0.9041889,0.9420527,0.00576973,2649.997898377811
1.8093874,0.93678784,0.0035339599,0.3507996,2649.999417674036
1.5047457,0.0036060815,0.0036060815,-1.7263033,2650.0009369702616
-0.24002078,-0.88175905,-2.3632815,0.9286381,2650.0024562664867
0.9051986,0.003678203,0.001153946,1.1690195,2650.003975562712
0.93541753,-2.3632815,-0.12924196,0.94082665,2650.0054948589377
0.0036060815,2.0494082,-1.9293978,0.0035339599,2650.007014155163
-2.0633278,1.5047457,0.92676294,0.0036060815,2650.0085334513883
0.003678203,0.036926273,1.1690195,-2.3632815,2650.010052747614
-2.3632815,0.9056313,0.94212484,0.001153946,2650.011572043839
1.5509036,0.93512905,0.0034618382,-0.36926273,2650.0130913400644
1.5047457,0.0036060815,0.0036060815,-1.3755037,2650.0146106362895
0.25848392,-2.0632555,-2.3632815,0.9322442,2650.016129932515
0.9039004,0.0036060815,0.015001299,1.1874826,2650.0176492287405
0.93476844,-2.3632815,-0.5538941,0.9406824,2650.0191685249656
0.0036060815,1.6432192,-0.84007275,0.0035339599,2650.020687821191
1.4817388,1.5047457,0.9318836,0.0036060815,2650.022207117416
0.003678203,0.46157843,1.2059457,-2.3632815,2650.0237264136417
-2.3632815,0.9062804,0.94147575,0.015001299,2650.0252457098672
1.5878298,0.9359945,0.0034618382,-0.6462098,2650.0267650060923
1.5047457,0.0036060815,0.0036060815,-2.1694186,2650.028284302318
0.42465216,1.4818109,-2.3632815,0.92979205,2650.0298035985434
0.90772283,0.0036060815,0.010385514,1.2244089,2650.0313228947684
0.93375874,-2.3632815,-1.0708619,0.9423412,2650.032842190994
0.0036060815,1.8463137,-1.4308931,0.0035339599,2650.034361487219
0.30024233,1.5047457,0.92885447,0.0036060815,2650.0358807834446
0.0036060815,-0.46157843,1.242872,-2.3632815,2650.03740007967
-2.3632815,0.90548706,0.9429182,0.010385514,2650.038919375895
1.0893251,0.9323884,0.0034618382,-0.16616823,2650.0404386721207
1.5047457,0.0036060815,0.0036060815,-2.35405,2650.041957968346
0.12924196,0.30031446,-2.3632815,0.92676294,2650.0434772645713
0.9043331,0.003678203,0.00576973,1.2613351,2650.044996560797
0.93447995,-2.3632815,0.27694705,0.94284606,2650.046515857022
0.0036060815,1.2554933,-1.7263033,0.0035339599,2650.0480351532474
-0.8813263,1.5047457,0.92849386,0.0036060815,2650.049554449473
0.0036060815,-0.24002078,1.2797983,-2.3632815,2650.051073745698
-2.3632815,0.9045495,0.94010544,0.00576973,2650.0525930419235
1.5878298,0.9345521,0.0034618382,-0.036926273,2650.0541123381486
1.5047457,0.0036060815,0.0036060815,-1.5970614,2650.055631634374
0.05538941,-0.8812542,-2.3632815,0.9283496,2650.0571509305996
0.90317917,0.003678203,0.001153946,1.2982614,2650.0586702268247
0.9343357,-2.3632815,0.3507996,0.94284606,2650.06018952305
0.0036060815,1.6247561,-2.224808,0.0035339599,2650.0617088192757
-2.0628228,1.5047457,0.9323163,0.0036060815,2650.063228115501
0.003678203,0.09231568,1.2982614,-2.3632815,2650.0647474117263
-2.3632815,0.90310705,0.9400333,0.001153946,2650.0662667079514
1.9017031,0.9372927,0.0034618382,-0.018463137,2650.067786004177
1.5047457,0.0036060815,0.0036060815,-1.7816927,2650.0693053004024
-0.18463136,-2.0627508,-2.3632815,0.9286381,2650.0708245966275
0.9026022,0.0036060815,0.015001299,1.3167245,2650.072343892853
0.93484056,-2.3632815,0.09231568,0.94284606,2650.0738631890786
0.0036060815,1.3847352,-1.6155245,0.0035339599,2650.0753824853036
1.4822437,1.5047457,0.93015265,0.0036060815,2650.076901781529
0.003678203,0.53543097,1.3351877,-2.3632815,2650.0784210777542
-2.3632815,0.9069295,0.94320667,0.015001299,2650.0799403739798
1.1631776,0.9346242,0.0035339599,0.5908204,2650.0814596702053
1.5047457,0.0036060815,0.0036060815,-1.6339877,2650.0829789664303
-0.16616823,1.4823158,-2.3632815,0.9297199,2650.084498262656
0.9059198,0.0036060815,0.010385514,1.3536508,2650.086017558881
0.9336866,-2.3632815,-0.09231568,0.9408988,2650.0875368551065
0.0036060815,1.2370301,-1.9847872,0.0034618382,2650.089056151332
0.3007472,1.5047457,0.9282775,0.0036060815,2650.090575447557
0.0036060815,-0.07385255,1.372114,-2.3632815,2650.0920947437826
-2.3632815,0.9036119,0.9423412,0.010385514,2650.093614040008
1.4585878,0.93476844,0.0034618382,-0.27694705,2650.095133336233
1.5047457,0.0036060815,0.0036060815,-1.3570405,2650.0966526324587
0.7754518,0.3008193,-2.3632815,0.9287102,2650.0981719286838
0.9039725,0.003678203,0.00576973,1.3905771,2650.0996912249093
0.9362109,-2.3632815,0.16616823,0.9429182,2650.101210521135
0.0036060815,1.88324,-1.541672,0.0035339599,2650.10272981736
-0.88082147,1.5047457,0.92914295,0.0036060815,2650.1042491135854
0.0036060815,-0.18463136,1.4090402,-2.3632815,2650.105768409811
-2.3632815,0.904261,0.9443606,0.00576973,2650.107287706036
1.9017031,0.9366436,0.0034618382,-0.018463137,2650.1088070022615
1.5047457,0.0036060815,0.0036060815,-1.0616304,2650.1103262984866
-0.4431153,-0.88074934,-2.3632815,0.9315951,2650.111845594712
0.90180886,0.003678203,0.001153946,1.4275033,2650.1133648909376
0.93678784,-2.3632815,-0.018463137,0.93844664,2650.1148841871627
0.0036060815,-2.2340395,-1.2277986,0.0035339599,2650.1164034833882
-2.062318,1.5047457,0.93015265,0.0036060815,2650.1179227796133
0.0036060815,-0.48004156,1.4275033,-2.3632815,2650.119442075839
-2.3632815,0.9062083,0.94147575,0.001153946,2650.1209613720644
1.1816407,0.93512905,0.0034618382,-0.2954102,2650.1224806682894
1.5047457,0.0036060815,0.0036060815,-1.6709139,2650.123999964515
0.92315686,-2.0622458,-2.3632815,0.92885447,2650.1255192607405
0.9057034,0.003678203,0.015001299,1.4459665,2650.1270385569655
0.93685997,-2.3632815,0.31387332,0.93924,2650.128557853191
0.0036060815,1.7724612,-1.9293978,0.0035339599,2650.130077149416
1.4827485,1.5047457,0.9302248,0.0036060815,2650.1315964456417
0.0036060815,-0.5908204,1.4644296,-2.3632815,2650.133115741867
-2.3632815,0.90447736,0.9419806,0.015001299,2650.1346350380923
1.9201663,0.93512905,0.0034618382,-0.25848392,2650.136154334318
1.5047457,0.0036060815,0.0036060815,-1.4308931,2650.1376736305433
0.12924196,1.4828206,-2.3632815,0.92849386,2650.1391929267684
0.9043331,0.0036060815,0.010385514,1.4828928,2650.140712222994
0.9349848,-2.3632815,0.27694705,0.94162,2650.142231519219
0.0036060815,1.4770509,-2.0401766,0.0035339599,2650.1437508154445
0.30125204,1.5047457,0.930946,0.0036060815,2650.14527011167
0.0036060815,-0.12924196,1.501356,-2.3632815,2650.146789407895
-2.3632815,0.9056313,0.9414036,0.010385514,2650.1483087041206
1.9940188,0.9315951,0.0035339599,0.40618902,2650.1498280003457
1.5047457,0.0036060815,0.0036060815,-1.6155245,2650.151347296571
-0.05538941,0.30132416,-2.3632815,0.92950356,2650.1528665927967
0.9051986,0.003678203,0.00576973,1.5198191,2650.154385889022
0.9372927,-2.3632815,0.51696783,0.94017756,2650.1559051852473
0.0036060815,1.2739564,-1.9293978,0.0035339599,2650.157424481473
-0.8803166,1.5047457,0.9269793,0.0036060815,2650.158943777698
0.003678203,0.22155765,1.5382823,-2.3632815,2650.1604630739234
-2.3632815,0.9035398,0.9419806,0.00576973,2650.1619823701485
0.7754518,0.93548965,0.0035339599,0.6646729,2650.163501666374
1.5047457,0.0036060815,0.0036060815,-2.2617342,2650.1650209625996
-0.22155765,-0.8802445,-2.3632815,0.930369,2650.1665402588246
0.90505433,0.003678203,0.001153946,1.5567454,2650.16805955505
0.93642724,-2.3632815,0.07385255,0.93952847,2650.1695788512757
0.0036060815,0.6646729,-1.4678193,0.0035339599,2650.1710981475007
-2.061813,1.5047457,0.92914295,0.0036060815,2650.1726174437263
0.0036060815,-0.5908204,1.5567454,-2.3632815,2650.1741367399513
-2.3632815,0.90483797,0.94414425,0.001153946,2650.175656036177
1.8093874,0.9346242,0.0035339599,0.0,2650.1771753324024
1.5047457,0.0036060815,0.0036060815,-1.541672,2650.1786946286275
-0.05538941,-2.061741,-2.3632815,0.9289987,2650.180213924853
0.9059198,0.0036060815,0.015001299,1.5752085,2650.181733221078
0.93512905,-2.3632815,0.036926273,0.9414036,2650.1832525173036
0.0036060815,1.6432192,-1.3385774,0.0035339599,2650.184771813529
1.4832534,1.5047457,0.9320278,0.0036060815,2650.186291109754
0.0036060815,-0.53543097,1.5936717,-2.3632815,2650.1878104059797
-2.3632815,0.90642464,0.9396727,0.015001299,2650.189329702205
1.7724612,0.93714845,0.0035339599,0.07385255,2650.1908489984303
1.5047457,0.0036060815,0.0036060815,-1.006241,2650.192368294656
0.3507996,1.4833255,-2.3632815,0.92986417,2650.193887590881
0.9030349,0.0036060815,0.010385514,1.6121348,2650.1954068871064
0.93484056,-2.3632815,-0.11077882,0.94053817,2650.196926183332
0.0036060815,0.7939149,-1.8370821,0.0035339599,2650.198445479557
0.3017569,1.5047457,0.93008053,0.0036060815,2650.1999647757825
0.0036060815,-0.5538941,1.630598,-2.3632815,2650.201484072008
-2.3632815,0.9078671,0.9427018,0.010385514,2650.203003368233
1.347809,0.9375812,0.0035339599,0.11077882,2650.2045226644586
1.5047457,0.0036060815,0.0036060815,-1.541672,2650.2060419606837
-0.5538941,0.301829,-2.3632815,0.92813325,2650.2075612569092
0.90209734,0.0036060815,0.00576973,1.6490611,2650.2090805531348
0.93808603,-2.3632815,0.3507996,0.93981695,2650.21059984936
0.0036060815,1.5878298,-1.5970614,0.0035339599,2650.2121191455853
-0.87981176,1.5047457,0.92784476,0.0036060815,2650.2136384418104
0.003678203,0.1477051,1.6675242,-2.3632815,2650.215157738036
-2.3632815,0.90238583,0.94183636,0.00576973,2650.2166770342615
1.0708619,0.93347025,0.0034618382,-0.33233646,2650.2181963304865
1.5047457,0.0036060815,0.0036060815,-1.947861,2650.219715626712
0.6646729,-0.87973964,-2.3632815,0.9336866,2650.2212349229376
0.9052707,0.0036060815,0.001153946,1.6859874,2650.2227542191627
0.9349848,-2.3632815,0.25848392,0.9403939,2650.224273515388
0.0036060815,1.6986086,-1.283188,0.0035339599,2650.2257928116132
-2.0613084,1.5047457,0.93080175,0.0036060815,2650.2273121078388
0.0036060815,-0.36926273,1.6859874,-2.3632815,2650.2288314040643
-2.3632815,0.9049822,0.93909574,0.001153946,2650.2303507002894
1.8278506,0.93642724,0.0035339599,0.31387332,2650.231869996515
1.5047457,0.0036060815,0.0036060815,-1.283188,2650.2333892927404
-0.31387332,-2.0612361,-2.3632815,0.93015265,2650.2349085889655
0.90144825,0.0036060815,0.015001299,1.7044505,2650.236427885191
0.93476844,-2.3632815,-0.4985047,0.93880725,2650.237947181416
0.0036060815,1.218567,-1.9663241,0.0034618382,2650.2394664776416
1.4837582,1.5047457,0.93116236,0.0036060815,2650.240985773867
0.0036060815,-0.62774664,1.7229136,-2.3632815,2650.242505070092
-2.3632815,0.90483797,0.93815815,0.015001299,2650.2440243663177
1.495514,0.935706,0.0035339599,0.018463137,2650.245543662543
1.5047457,0.0036060815,0.0036060815,-1.6893771,2650.2470629587683
0.036926273,1.4838303,-2.3632815,0.92907083,2650.248582254994
0.9070016,0.003678203,0.010385514,1.7413768,2650.250101551219
0.9329654,-2.3632815,0.05538941,0.94162,2650.2516208474444
0.0036060815,0.9970094,-2.243271,0.0034618382,2650.25314014367
0.30226174,1.5047457,0.9293593,0.0036060815,2650.254659439895
0.0036060815,-0.05538941,1.7598399,-2.3632815,2650.2561787361205
-2.3632815,0.9059919,0.94219697,0.010385514,2650.2576980323456
1.88324,0.93282115,0.0034618382,-0.1477051,2650.259217328571
1.5047457,0.0036060815,0.0036060815,-1.2093354,2650.2607366247967
-0.05538941,0.30233386,-2.3632815,0.9263302,2650.2622559210217
0.90346766,0.0036060815,0.00576973,1.778303,2650.2637752172473
0.93924,-2.3632815,0.40618902,0.93981695,2650.265294513473
0.0036060815,1.5509036,-1.4124299,0.0035339599,2650.266813809698
-0.8793069,1.5047457,0.92748415,0.0036060815,2650.2683331059234
0.003678203,0.81237805,1.7967662,-2.3632815,2650.2698524021484
-2.3632815,0.9075786,0.94111514,0.00576973,2650.271371698374
1.9201663,0.9389515,0.0034618382,-0.25848392,2650.2728909945995
1.5047457,0.0036060815,0.0036060815,2.2801974,2650.2744102908246
0.42465216,-0.8792348,-2.3632815,0.9297199,2650.27592958705
0.90577555,0.003678203,0.001153946,1.8152293,2650.277448883275
0.9353454,-2.3632815,0.40618902,0.9408988,2650.2789681795007
0.0036060815,1.347809,2.095566,0.0034618382,2650.280487475726
-2.0608034,1.5047457,0.9272678,0.0036060815,2650.2820067719513
0.003678203,0.0,1.8152293,-2.3632815,2650.283526068177
-2.3632815,0.9056313,0.94162,0.001153946,2650.2850453644023
1.0339357,0.93707633,0.0035339599,0.24002078,2650.2865646606274
1.5047457,0.0036060815,0.0036060815,-1.9293978,2650.288083956853
-0.4985047,-2.0607314,-2.3632815,0.93173933,2650.289603253078
0.9051986,0.0036060815,0.015001299,1.8336924,2650.2911225493035
0.9349127,-2.3632815,0.0,0.94219697,2650.292641845529
0.0036060815,1.6247561,-2.1878817,0.0035339599,2650.294161141754
1.4842631,1.5047457,0.92719567,0.0036060815,2650.2956804379796
0.0036060815,-0.22155765,1.8521556,-2.3632815,2650.297199734205
-2.3632815,0.90411675,0.941043,0.015001299,2650.29871903043
1.4401246,0.93476844,0.0035339599,0.51696783,2650.3002383266557
1.5047457,0.0036060815,0.0036060815,-1.283188,2650.301757622881
-0.12924196,1.4843352,-2.3632815,0.92748415,2650.3032769191063
0.90606403,0.003678203,0.010385514,1.8706187,2650.304796215332
0.93541753,-2.3632815,-0.5538941,0.94248545,2650.306315511557
0.0036060815,1.4031984,-1.4308931,0.0034618382,2650.3078348077825
0.3027666,1.5047457,0.9292872,0.0036060815,2650.3093541040075
0.0036060815,-0.24002078,1.8890818,-2.3632815,2650.310873400233
-2.3632815,0.9028907,0.9427018,0.010385514,2650.3123926964586
1.88324,0.9345521,0.0035339599,0.42465216,2650.3139119926836
